frequency impedance phase
1.00000000000000e+00	-4.00199997987966e+00,-3.70685839739134e-03
1.39998799976000e+00	-4.00200008054743e+00,-5.18956208717532e-03
1.79997599951999e+00	-4.00200021477085e+00,-6.67227059975623e-03
2.19996399927999e+00	-4.00200038255384e+00,-8.15498530374745e-03
2.59995199903998e+00	-4.00200058389953e+00,-9.63770757599907e-03
2.99993999879998e+00	-4.00200081881009e+00,-1.11204387970496e-02
3.39992799855997e+00	-4.00200108728925e+00,-1.26031803411315e-02
3.79991599831997e+00	-4.00200138934114e+00,-1.40859335834602e-02
4.19990399807996e+00	-4.00200172497070e+00,-1.55686999057086e-02
4.59989199783996e+00	-4.00200209418232e+00,-1.70514806800744e-02
4.99987999759995e+00	-4.00200249698208e+00,-1.85342772856941e-02
5.39986799735995e+00	-4.00200293337649e+00,-2.00170911027266e-02
5.79985599711994e+00	-4.00200340337179e+00,-2.14999235055267e-02
6.19984399687994e+00	-4.00200390697573e+00,-2.29827758735981e-02
6.59983199663993e+00	-4.00200444419561e+00,-2.44656495852093e-02
6.99981999639993e+00	-4.00200501503989e+00,-2.59485460178757e-02
7.39980799615992e+00	-4.00200561951731e+00,-2.74314665515473e-02
7.79979599591992e+00	-4.00200625763710e+00,-2.89144125654326e-02
8.19978399567991e+00	-4.00200692940911e+00,-3.03973854384666e-02
8.59977199543991e+00	-4.00200763484387e+00,-3.18803865502312e-02
8.99975999519990e+00	-4.00200837395190e+00,-3.33634172825493e-02
9.39974799495990e+00	-4.00200914674475e+00,-3.48464790142728e-02
9.79973599471989e+00	-4.00200995323443e+00,-3.63295731265215e-02
1.01997239944799e+01	-4.00201079343316e+00,-3.78127010015494e-02
1.05997119942399e+01	-4.00201166735387e+00,-3.92958640209407e-02
1.09996999939999e+01	-4.00201257501010e+00,-4.07790635667586e-02
1.13996879937599e+01	-4.00201351641584e+00,-4.22623010220055e-02
1.17996759935199e+01	-4.00201449158557e+00,-4.37455777701791e-02
1.21996639932799e+01	-4.00201550053428e+00,-4.52288951943719e-02
1.25996519930399e+01	-4.00201654327755e+00,-4.67122546800146e-02
1.29996399927999e+01	-4.00201761983135e+00,-4.81956576112388e-02
1.33996279925598e+01	-4.00201873021238e+00,-4.96791053731713e-02
1.37996159923198e+01	-4.00201987443773e+00,-5.11625993526195e-02
1.41996039920798e+01	-4.00202105252496e+00,-5.26461409360335e-02
1.45995919918398e+01	-4.00202226449233e+00,-5.41297315099776e-02
1.49995799915998e+01	-4.00202351035843e+00,-5.56133724636345e-02
1.53995679913598e+01	-4.00202479014253e+00,-5.70970651842719e-02
1.57995559911198e+01	-4.00202610386440e+00,-5.85808110613448e-02
1.61995439908798e+01	-4.00202745154422e+00,-6.00646114851376e-02
1.65995319906398e+01	-4.00202883320283e+00,-6.15484678467805e-02
1.69995199903998e+01	-4.00203024886153e+00,-6.30323815366610e-02
1.73995079901598e+01	-4.00203169854214e+00,-6.45163539476209e-02
1.77994959899198e+01	-4.00203318226714e+00,-6.60003864717866e-02
1.81994839896798e+01	-4.00203470005934e+00,-6.74844805032973e-02
1.85994719894398e+01	-4.00203625194222e+00,-6.89686374367351e-02
1.89994599891998e+01	-4.00203783793979e+00,-7.04528586667866e-02
1.93994479889598e+01	-4.00203945807644e+00,-7.19371455904129e-02
1.97994359887198e+01	-4.00204111237731e+00,-7.34214996039114e-02
2.01994239884798e+01	-4.00204280086792e+00,-7.49059221054170e-02
2.05994119882398e+01	-4.00204452357439e+00,-7.63904144938969e-02
2.09993999879998e+01	-4.00204628052338e+00,-7.78749781683597e-02
2.13993879877598e+01	-4.00204807174201e+00,-7.93596145300293e-02
2.17993759875198e+01	-4.00204989725805e+00,-8.08443249800796e-02
2.21993639872798e+01	-4.00205175709970e+00,-8.23291109215779e-02
2.25993519870398e+01	-4.00205365129578e+00,-8.38139737573339e-02
2.29993399867998e+01	-4.00205557987559e+00,-8.52989148922992e-02
2.33993279865598e+01	-4.00205754286904e+00,-8.67839357318730e-02
2.37993159863198e+01	-4.00205954030648e+00,-8.82690376827031e-02
2.41993039860798e+01	-4.00206157221892e+00,-8.97542221522494e-02
2.45992919858397e+01	-4.00206363863782e+00,-9.12394905494690e-02
2.49992799855997e+01	-4.00206573959520e+00,-9.27248442843753e-02
2.53992679853597e+01	-4.00206787512365e+00,-9.42102847675947e-02
2.57992559851197e+01	-4.00207004525634e+00,-9.56958134110571e-02
2.61992439848797e+01	-4.00207225002688e+00,-9.71814316284610e-02
2.65992319846397e+01	-4.00207448946954e+00,-9.86671408339217e-02
2.69992199843997e+01	-4.00207676361906e+00,-1.00152942443229e-01
2.73992079841597e+01	-4.00207907251078e+00,-1.01638837872954e-01
2.77991959839197e+01	-4.00208141618054e+00,-1.03124828541475e-01
2.81991839836797e+01	-4.00208379466479e+00,-1.04610915867972e-01
2.85991719834397e+01	-4.00208620800048e+00,-1.06097101273000e-01
2.89991599831997e+01	-4.00208865622517e+00,-1.07583386178506e-01
2.93991479829597e+01	-4.00209113937690e+00,-1.09069772007720e-01
2.97991359827197e+01	-4.00209365749435e+00,-1.10556260184941e-01
3.01991239824797e+01	-4.00209621061670e+00,-1.12042852136228e-01
3.05991119822397e+01	-4.00209879878371e+00,-1.13529549288735e-01
3.09990999819997e+01	-4.00210142203566e+00,-1.15016353071165e-01
3.13990879817597e+01	-4.00210408041348e+00,-1.16503264913451e-01
3.17990759815197e+01	-4.00210677395857e+00,-1.17990286246989e-01
3.21990639812797e+01	-4.00210950271296e+00,-1.19477418504533e-01
3.25990519810397e+01	-4.00211226671919e+00,-1.20964663120894e-01
3.29990399807997e+01	-4.00211506602040e+00,-1.22452021531581e-01
3.33990279805597e+01	-4.00211790066028e+00,-1.23939495174067e-01
3.37990159803197e+01	-4.00212077068312e+00,-1.25427085486998e-01
3.41990039800797e+01	-4.00212367613372e+00,-1.26914793911123e-01
3.45989919798396e+01	-4.00212661705752e+00,-1.28402621888158e-01
3.49989799795996e+01	-4.00212959350049e+00,-1.29890570861601e-01
3.53989679793596e+01	-4.00213260550918e+00,-1.31378642276737e-01
3.57989559791196e+01	-4.00213565313072e+00,-1.32866837580369e-01
3.61989439788796e+01	-4.00213873641281e+00,-1.34355158220827e-01
3.65989319786396e+01	-4.00214185540375e+00,-1.35843605648095e-01
3.69989199783996e+01	-4.00214501015238e+00,-1.37332181314160e-01
3.73989079781596e+01	-4.00214820070817e+00,-1.38820886672288e-01
3.77988959779196e+01	-4.00215142712112e+00,-1.40309723177600e-01
3.81988839776796e+01	-4.00215468944186e+00,-1.41798692287145e-01
3.85988719774396e+01	-4.00215798772157e+00,-1.43287795459678e-01
3.89988599771996e+01	-4.00216132201205e+00,-1.44777034155392e-01
3.93988479769596e+01	-4.00216469236567e+00,-1.46266409836555e-01
3.97988359767196e+01	-4.00216809883535e+00,-1.47755923967628e-01
4.01988239764796e+01	-4.00217154147470e+00,-1.49245578014038e-01
4.05988119762395e+01	-4.00217502033783e+00,-1.50735373443882e-01
4.09987999759995e+01	-4.00217853547950e+00,-1.52225311726699e-01
4.13987879757595e+01	-4.00218208695503e+00,-1.53715394334156e-01
4.17987759755195e+01	-4.00218567482038e+00,-1.55205622739494e-01
4.21987639752795e+01	-4.00218929913206e+00,-1.56695998418340e-01
4.25987519750395e+01	-4.00219295994722e+00,-1.58186522848083e-01
4.29987399747995e+01	-4.00219665732360e+00,-1.59677197508182e-01
4.33987279745595e+01	-4.00220039131954e+00,-1.61168023879827e-01
4.37987159743195e+01	-4.00220416199400e+00,-1.62659003446526e-01
4.41987039740795e+01	-4.00220796940653e+00,-1.64150137693772e-01
4.45986919738395e+01	-4.00221181361731e+00,-1.65641428109058e-01
4.49986799735995e+01	-4.00221569468715e+00,-1.67132876181885e-01
4.53986679733595e+01	-4.00221961267740e+00,-1.68624483404232e-01
4.57986559731195e+01	-4.00222356765010e+00,-1.70116251269772e-01
4.61986439728795e+01	-4.00222755966788e+00,-1.71608181274567e-01
4.65986319726394e+01	-4.00223158879400e+00,-1.73100274916848e-01
4.69986199723994e+01	-4.00223565509231e+00,-1.74592533696921e-01
4.73986079721594e+01	-4.00223975862733e+00,-1.76084959117515e-01
4.77985959719194e+01	-4.00224389946416e+00,-1.77577552683398e-01
4.81985839716794e+01	-4.00224807766858e+00,-1.79070315901559e-01
4.85985719714394e+01	-4.00225229330694e+00,-1.80563250281563e-01
4.89985599711994e+01	-4.00225654644627e+00,-1.82056357335054e-01
4.93985479709594e+01	-4.00226083715423e+00,-1.83549638575819e-01
4.97985359707194e+01	-4.00226516549907e+00,-1.85043095520428e-01
5.01985239704794e+01	-4.00226953154971e+00,-1.86536729687625e-01
5.05985119702394e+01	-4.00227393537574e+00,-1.88030542598392e-01
5.09984999699994e+01	-4.00227837704731e+00,-1.89524535776477e-01
5.13984879697594e+01	-4.00228285663533e+00,-1.91018710747440e-01
5.17984759695194e+01	-4.00228737421124e+00,-1.92513069040085e-01
5.21984639692794e+01	-4.00229192984721e+00,-1.94007612184997e-01
5.25984519690393e+01	-4.00229652361601e+00,-1.95502341715805e-01
5.29984399687993e+01	-4.00230115559109e+00,-1.96997259168285e-01
5.33984279685593e+01	-4.00230582584655e+00,-1.98492366081000e-01
5.37984159683193e+01	-4.00231053445716e+00,-1.99987663994856e-01
5.41984039680793e+01	-4.00231528149833e+00,-2.01483154453457e-01
5.45983919678393e+01	-4.00232006704612e+00,-2.02978839003119e-01
5.49983799675993e+01	-4.00232489117729e+00,-2.04474719192771e-01
5.53983679673593e+01	-4.00232975396926e+00,-2.05970796573794e-01
5.57983559671193e+01	-4.00233465550011e+00,-2.07467072700265e-01
5.61983439668793e+01	-4.00233959584855e+00,-2.08963549129479e-01
5.65983319666393e+01	-4.00234457509406e+00,-2.10460227420717e-01
5.69983199663993e+01	-4.00234959331672e+00,-2.11957109136506e-01
5.73983079661593e+01	-4.00235465059731e+00,-2.13454195841950e-01
5.77982959659193e+01	-4.00235974701729e+00,-2.14951489105089e-01
5.81982839656793e+01	-4.00236488265882e+00,-2.16448990496567e-01
5.85982719654392e+01	-4.00237005760472e+00,-2.17946701590048e-01
5.89982599651992e+01	-4.00237527193854e+00,-2.19444623961886e-01
5.93982479649592e+01	-4.00238052574447e+00,-2.20942759191649e-01
5.97982359647192e+01	-4.00238581910743e+00,-2.22441108861514e-01
6.01982239644792e+01	-4.00239115211302e+00,-2.23939674556786e-01
6.05982119642392e+01	-4.00239652484757e+00,-2.25438457865406e-01
6.09981999639992e+01	-4.00240193739807e+00,-2.26937460378699e-01
6.13981879637592e+01	-4.00240738985224e+00,-2.28436683690822e-01
6.17981759635192e+01	-4.00241288229850e+00,-2.29936129399010e-01
6.21981639632792e+01	-4.00241841482600e+00,-2.31435799103413e-01
6.25981519630392e+01	-4.00242398752459e+00,-2.32935694407342e-01
6.29981399627992e+01	-4.00242960048479e+00,-2.34435816917509e-01
6.33981279625592e+01	-4.00243525379796e+00,-2.35936168243021e-01
6.37981159623192e+01	-4.00244094755603e+00,-2.37436749997097e-01
6.41981039620792e+01	-4.00244668185178e+00,-2.38937563795324e-01
6.45980919618392e+01	-4.00245245677865e+00,-2.40438611256918e-01
6.49980799615992e+01	-4.00245827243085e+00,-2.41939894004175e-01
6.53980679613592e+01	-4.00246412890330e+00,-2.43441413662597e-01
6.57980559611192e+01	-4.00247002629163e+00,-2.44943171861305e-01
6.61980439608792e+01	-4.00247596469227e+00,-2.46445170232260e-01
6.65980319606392e+01	-4.00248194420238e+00,-2.47947410410904e-01
6.69980199603992e+01	-4.00248796491983e+00,-2.49449894036226e-01
6.73980079601592e+01	-4.00249402694325e+00,-2.50952622750503e-01
6.77979959599192e+01	-4.00250013037206e+00,-2.52455598199137e-01
6.81979839596792e+01	-4.00250627530639e+00,-2.53958822031357e-01
6.85979719594392e+01	-4.00251246184716e+00,-2.55462295899662e-01
6.89979599591992e+01	-4.00251869009603e+00,-2.56966021459957e-01
6.93979479589592e+01	-4.00252496015545e+00,-2.58470000371845e-01
6.97979359587192e+01	-4.00253127212859e+00,-2.59974234298394e-01
7.01979239584792e+01	-4.00253762611946e+00,-2.61478724906064e-01
7.05979119582392e+01	-4.00254402223280e+00,-2.62983473865150e-01
7.09978999579992e+01	-4.00255046057413e+00,-2.64488482849399e-01
7.13978879577592e+01	-4.00255694124978e+00,-2.65993753536229e-01
7.17978759575192e+01	-4.00256346436683e+00,-2.67499287606742e-01
7.21978639572792e+01	-4.00257003003317e+00,-2.69005086745739e-01
7.25978519570392e+01	-4.00257663835747e+00,-2.70511152641769e-01
7.29978399567992e+01	-4.00258328944922e+00,-2.72017486986973e-01
7.33978279565592e+01	-4.00258998341869e+00,-2.73524091477441e-01
7.37978159563192e+01	-4.00259672037695e+00,-2.75030967812946e-01
7.41978039560792e+01	-4.00260350043588e+00,-2.76538117697187e-01
7.45977919558392e+01	-4.00261032370817e+00,-2.78045542837633e-01
7.49977799555992e+01	-4.00261719030733e+00,-2.79553244945689e-01
7.53977679553592e+01	-4.00262410034771e+00,-2.81061225736567e-01
7.57977559551192e+01	-4.00263105394441e+00,-2.82569486929553e-01
7.61977439548792e+01	-4.00263805121344e+00,-2.84078030247808e-01
7.65977319546392e+01	-4.00264509227157e+00,-2.85586857418521e-01
7.69977199543992e+01	-4.00265217723643e+00,-2.87095970172953e-01
7.73977079541592e+01	-4.00265930622652e+00,-2.88605370246234e-01
7.77976959539192e+01	-4.00266647936112e+00,-2.90115059377716e-01
7.81976839536792e+01	-4.00267369676040e+00,-2.91625039310822e-01
7.85976719534392e+01	-4.00268095854535e+00,-2.93135311793120e-01
7.89976599531992e+01	-4.00268826483781e+00,-2.94645878576371e-01
7.93976479529592e+01	-4.00269561576051e+00,-2.96156741416460e-01
7.97976359527192e+01	-4.00270301143702e+00,-2.97667902073502e-01
8.01976239524792e+01	-4.00271045199175e+00,-2.99179362311884e-01
8.05976119522392e+01	-4.00271793755003e+00,-3.00691123900147e-01
8.09975999519992e+01	-4.00272546823802e+00,-3.02203188611425e-01
8.13975879517592e+01	-4.00273304418277e+00,-3.03715558222928e-01
8.17975759515192e+01	-4.00274066551221e+00,-3.05228234516271e-01
8.21975639512792e+01	-4.00274833235515e+00,-3.06741219277722e-01
8.25975519510392e+01	-4.00275604484132e+00,-3.08254514297479e-01
8.29975399507992e+01	-4.00276380310131e+00,-3.09768121370629e-01
8.33975279505592e+01	-4.00277160726660e+00,-3.11282042296599e-01
8.37975159503192e+01	-4.00277945746960e+00,-3.12796278879285e-01
8.41975039500792e+01	-4.00278735384363e+00,-3.14310832927194e-01
8.45974919498392e+01	-4.00279529652289e+00,-3.15825706253367e-01
8.49974799495992e+01	-4.00280328564253e+00,-3.17340900675489e-01
8.53974679493592e+01	-4.00281132133860e+00,-3.18856418015828e-01
8.57974559491192e+01	-4.00281940374806e+00,-3.20372260101442e-01
8.61974439488792e+01	-4.00282753300884e+00,-3.21888428763901e-01
8.65974319486392e+01	-4.00283570925978e+00,-3.23404925839633e-01
8.69974199483992e+01	-4.00284393264066e+00,-3.24921753169872e-01
8.73974079481592e+01	-4.00285220329220e+00,-3.26438912600497e-01
8.77973959479192e+01	-4.00286052135608e+00,-3.27956405982345e-01
8.81973839476792e+01	-4.00286888697492e+00,-3.29474235170998e-01
8.85973719474392e+01	-4.00287730029231e+00,-3.30992402027063e-01
8.89973599471992e+01	-4.00288576145279e+00,-3.32510908415992e-01
8.93973479469592e+01	-4.00289427060188e+00,-3.34029756208077e-01
8.97973359467192e+01	-4.00290282788606e+00,-3.35548947278861e-01
9.01973239464792e+01	-4.00291143345280e+00,-3.37068483508717e-01
9.05973119462392e+01	-4.00292008745055e+00,-3.38588366783029e-01
9.09972999459992e+01	-4.00292879002874e+00,-3.40108598992473e-01
9.13972879457592e+01	-4.00293754133779e+00,-3.41629182032642e-01
9.17972759455192e+01	-4.00294634152914e+00,-3.43150117804292e-01
9.21972639452792e+01	-4.00295519075521e+00,-3.44671408213592e-01
9.25972519450392e+01	-4.00296408916943e+00,-3.46193055171637e-01
9.29972399447992e+01	-4.00297303692627e+00,-3.47715060594950e-01
9.33972279445592e+01	-4.00298203418118e+00,-3.49237426405219e-01
9.37972159443192e+01	-4.00299108109065e+00,-3.50760154529720e-01
9.41972039440792e+01	-4.00300017781223e+00,-3.52283246900629e-01
9.45971919438392e+01	-4.00300932450444e+00,-3.53806705455980e-01
9.49971799435992e+01	-4.00301852132689e+00,-3.55330532138978e-01
9.53971679433592e+01	-4.00302776844025e+00,-3.56854728898194e-01
9.57971559431192e+01	-4.00303706600619e+00,-3.58379297687954e-01
9.61971439428792e+01	-4.00304641418746e+00,-3.59904240467968e-01
9.65971319426392e+01	-4.00305581314791e+00,-3.61429559203464e-01
9.69971199423992e+01	-4.00306526305237e+00,-3.62955255865468e-01
9.73971079421592e+01	-4.00307476406684e+00,-3.64481332430375e-01
9.77970959419192e+01	-4.00308431635835e+00,-3.66007790880394e-01
9.81970839416792e+01	-4.00309392009500e+00,-3.67534633203549e-01
9.85970719414392e+01	-4.00310357544605e+00,-3.69061861393331e-01
9.89970599411992e+01	-4.00311328258178e+00,-3.70589477449231e-01
9.93970479409592e+01	-4.00312304167363e+00,-3.72117483376485e-01
9.97970359407192e+01	-4.00313285289409e+00,-3.73645881186263e-01
1.00197023940479e+02	-4.00314271641686e+00,-3.75174672895418e-01
1.00597011940239e+02	-4.00315263241667e+00,-3.76703860526900e-01
1.00996999939999e+02	-4.00316260106941e+00,-3.78233446109614e-01
1.01396987939759e+02	-4.00317262255212e+00,-3.79763431678475e-01
1.01796975939519e+02	-4.00318269704296e+00,-3.81293819274373e-01
1.02196963939279e+02	-4.00319282472126e+00,-3.82824610944258e-01
1.02596951939039e+02	-4.00320300576748e+00,-3.84355808741276e-01
1.02996939938799e+02	-4.00321324036325e+00,-3.85887414724658e-01
1.03396927938559e+02	-4.00322352869136e+00,-3.87419430959965e-01
1.03796915938319e+02	-4.00323387093578e+00,-3.88951859518783e-01
1.04196903938079e+02	-4.00324426728166e+00,-3.90484702479110e-01
1.04596891937839e+02	-4.00325471791532e+00,-3.92017961925301e-01
1.04996879937599e+02	-4.00326522302431e+00,-3.93551639947810e-01
1.05396867937359e+02	-4.00327578279734e+00,-3.95085738643757e-01
1.05796855937119e+02	-4.00328639742433e+00,-3.96620260116614e-01
1.06196843936879e+02	-4.00329706709644e+00,-3.98155206476200e-01
1.06596831936639e+02	-4.00330779200602e+00,-3.99690579838998e-01
1.06996819936399e+02	-4.00331857234667e+00,-4.01226382327980e-01
1.07396807936159e+02	-4.00332940831322e+00,-4.02762616072635e-01
1.07796795935919e+02	-4.00334030010171e+00,-4.04299283209281e-01
1.08196783935679e+02	-4.00335124790948e+00,-4.05836385880668e-01
1.08596771935439e+02	-4.00336225193508e+00,-4.07373926236430e-01
1.08996759935199e+02	-4.00337331237836e+00,-4.08911906432860e-01
1.09396747934959e+02	-4.00338442944040e+00,-4.10450328633136e-01
1.09796735934719e+02	-4.00339560332358e+00,-4.11989195007206e-01
1.10196723934479e+02	-4.00340683423156e+00,-4.13528507731992e-01
1.10596711934239e+02	-4.00341812236930e+00,-4.15068268991161e-01
1.10996699933999e+02	-4.00342946794305e+00,-4.16608480975575e-01
1.11396687933759e+02	-4.00344087116037e+00,-4.18149145882877e-01
1.11796675933519e+02	-4.00345233223014e+00,-4.19690265917964e-01
1.12196663933279e+02	-4.00346385136254e+00,-4.21231843292685e-01
1.12596651933039e+02	-4.00347542876910e+00,-4.22773880226176e-01
1.12996639932799e+02	-4.00348706466270e+00,-4.24316378944583e-01
1.13396627932559e+02	-4.00349875925753e+00,-4.25859341681434e-01
1.13796615932319e+02	-4.00351051276916e+00,-4.27402770677435e-01
1.14196603932079e+02	-4.00352232541451e+00,-4.28946668180681e-01
1.14596591931839e+02	-4.00353419741189e+00,-4.30491036446564e-01
1.14996579931599e+02	-4.00354612898096e+00,-4.32035877737872e-01
1.15396567931359e+02	-4.00355812034279e+00,-4.33581194324893e-01
1.15796555931119e+02	-4.00357017171981e+00,-4.35126988485543e-01
1.16196543930879e+02	-4.00358228333589e+00,-4.36673262505050e-01
1.16596531930639e+02	-4.00359445541629e+00,-4.38220018676361e-01
1.16996519930399e+02	-4.00360668818771e+00,-4.39767259299996e-01
1.17396507930159e+02	-4.00361898187827e+00,-4.41314986684205e-01
1.17796495929919e+02	-4.00363133671748e+00,-4.42863203145103e-01
1.18196483929679e+02	-4.00364375293637e+00,-4.44411911006342e-01
1.18596471929439e+02	-4.00365623076738e+00,-4.45961112599483e-01
1.18996459929199e+02	-4.00366877044443e+00,-4.47510810264056e-01
1.19396447928959e+02	-4.00368137220290e+00,-4.49061006347451e-01
1.19796435928719e+02	-4.00369403627964e+00,-4.50611703205072e-01
1.20196423928479e+02	-4.00370676291304e+00,-4.52162903200164e-01
1.20596411928239e+02	-4.00371955234292e+00,-4.53714608704335e-01
1.20996399927999e+02	-4.00373240481065e+00,-4.55266822097109e-01
1.21396387927759e+02	-4.00374532055912e+00,-4.56819545766211e-01
1.21796375927519e+02	-4.00375829983273e+00,-4.58372782107637e-01
1.22196363927279e+02	-4.00377134287741e+00,-4.59926533525627e-01
1.22596351927039e+02	-4.00378444994066e+00,-4.61480802432733e-01
1.22996339926799e+02	-4.00379762127153e+00,-4.63035591249881e-01
1.23396327926559e+02	-4.00381085712059e+00,-4.64590902406437e-01
