frequency impedance phase
1.00000000000000e+01	9.99999989893525e+05,-1.00530963898860e+02
1.12018403680736e+02	9.99998731828730e+05,-1.12613039289680e+03
2.14036807361472e+02	9.99995370067923e+05,-2.15172271475862e+03
3.16055211042208e+02	9.99989904653536e+05,-3.17730145696187e+03
4.18073614722945e+02	9.99982335654553e+05,-4.20286014726972e+03
5.20092018403681e+02	9.99972663166510e+05,-5.22839231386721e+03
6.22110422084417e+02	9.99960887311485e+05,-6.25389148549729e+03
7.24128825765153e+02	9.99947008238103e+05,-7.27935119159697e+03
8.26147229445889e+02	9.99931026121523e+05,-8.30476496243337e+03
9.28165633126625e+02	9.99912941163439e+05,-9.33012632923978e+03
1.03018403680736e+03	9.99892753592072e+05,-1.03554288243516e+04
1.13220244048810e+03	9.99870463662158e+05,-1.13806659813424e+04
1.23422084416883e+03	9.99846071654948e+05,-1.24058313351596e+04
1.33623924784957e+03	9.99819577878193e+05,-1.34309184222606e+04
1.43825765153031e+03	9.99790982666135e+05,-1.44559207807481e+04
1.54027605521104e+03	9.99760286379500e+05,-1.54808319505064e+04
1.64229445889178e+03	9.99727489405484e+05,-1.65056454733365e+04
1.74431286257251e+03	9.99692592157741e+05,-1.75303548930916e+04
1.84633126625325e+03	9.99655595076368e+05,-1.85549537558132e+04
1.94834966993399e+03	9.99616498627897e+05,-1.95794356098655e+04
2.05036807361472e+03	9.99575303305273e+05,-2.06037940060713e+04
2.15238647729546e+03	9.99532009627844e+05,-2.16280224978471e+04
2.25440488097620e+03	9.99486618141343e+05,-2.26521146413376e+04
2.35642328465693e+03	9.99439129417869e+05,-2.36760639955512e+04
2.45844168833767e+03	9.99389544055871e+05,-2.46998641224945e+04
2.56046009201840e+03	9.99337862680129e+05,-2.57235085873068e+04
2.66247849569914e+03	9.99284085941733e+05,-2.67469909583949e+04
2.76449689937988e+03	9.99228214518065e+05,-2.77703048075671e+04
2.86651530306061e+03	9.99170249112775e+05,-2.87934437101678e+04
2.96853370674135e+03	9.99110190455759e+05,-2.98164012452112e+04
3.07055211042209e+03	9.99048039303141e+05,-3.08391709955155e+04
3.17257051410282e+03	9.98983796437240e+05,-3.18617465478362e+04
3.27458891778356e+03	9.98917462666555e+05,-3.28841214930001e+04
3.37660732146430e+03	9.98849038825733e+05,-3.39062894260384e+04
3.47862572514503e+03	9.98778525775545e+05,-3.49282439463199e+04
3.58064412882577e+03	9.98705924402861e+05,-3.59499786576842e+04
3.68266253250650e+03	9.98631235620618e+05,-3.69714871685742e+04
3.78468093618724e+03	9.98554460367794e+05,-3.79927630921687e+04
3.88669933986798e+03	9.98475599609380e+05,-3.90138000465151e+04
3.98871774354871e+03	9.98394654336345e+05,-4.00345916546614e+04
4.09073614722945e+03	9.98311625565609e+05,-4.10551315447880e+04
4.19275455091019e+03	9.98226514340012e+05,-4.20754133503396e+04
4.29477295459092e+03	9.98139321728275e+05,-4.30954307101568e+04
4.39679135827166e+03	9.98050048824974e+05,-4.41151772686069e+04
4.49880976195239e+03	9.97958696750502e+05,-4.51346466757156e+04
4.60082816563313e+03	9.97865266651033e+05,-4.61538325872971e+04
4.70284656931387e+03	9.97769759698488e+05,-4.71727286650851e+04
4.80486497299460e+03	9.97672177090499e+05,-4.81913285768629e+04
4.90688337667534e+03	9.97572520050370e+05,-4.92096259965933e+04
5.00890178035607e+03	9.97470789827038e+05,-5.02276146045482e+04
5.11092018403681e+03	9.97366987695037e+05,-5.12452880874387e+04
5.21293858771755e+03	9.97261114954456e+05,-5.22626401385435e+04
5.31495699139828e+03	9.97153172930899e+05,-5.32796644578381e+04
5.41697539507902e+03	9.97043162975442e+05,-5.42963547521234e+04
5.51899379875975e+03	9.96931086464594e+05,-5.53127047351541e+04
5.62101220244049e+03	9.96816944800252e+05,-5.63287081277665e+04
5.72303060612122e+03	9.96700739409659e+05,-5.73443586580062e+04
5.82504900980196e+03	9.96582471745356e+05,-5.83596500612555e+04
5.92706741348270e+03	9.96462143285143e+05,-5.93745760803605e+04
6.02908581716343e+03	9.96339755532024e+05,-6.03891304657579e+04
6.13110422084417e+03	9.96215310014171e+05,-6.14033069756009e+04
6.23312262452490e+03	9.96088808284868e+05,-6.24170993758862e+04
6.33514102820564e+03	9.95960251922467e+05,-6.34305014405786e+04
6.43715943188638e+03	9.95829642530337e+05,-6.44435069517373e+04
6.53917783556711e+03	9.95696981736815e+05,-6.54561096996404e+04
6.64119623924785e+03	9.95562271195158e+05,-6.64683034829098e+04
6.74321464292858e+03	9.95425512583488e+05,-6.74800821086353e+04
6.84523304660932e+03	9.95286707604740e+05,-6.84914393924987e+04
6.94725145029006e+03	9.95145857986614e+05,-6.95023691588975e+04
7.04926985397079e+03	9.95002965481516e+05,-7.05128652410678e+04
7.15128825765153e+03	9.94858031866507e+05,-7.15229214812071e+04
7.25330666133226e+03	9.94711058943248e+05,-7.25325317305972e+04
7.35532506501300e+03	9.94562048537943e+05,-7.35416898497256e+04
7.45734346869374e+03	9.94411002501284e+05,-7.45503897084075e+04
7.55936187237447e+03	9.94257922708393e+05,-7.55586251859072e+04
7.66138027605521e+03	9.94102811058765e+05,-7.65663901710584e+04
7.76339867973594e+03	9.93945669476208e+05,-7.75736785623850e+04
7.86541708341668e+03	9.93786499908788e+05,-7.85804842682212e+04
7.96743548709741e+03	9.93625304328764e+05,-7.95868012068308e+04
8.06945389077815e+03	9.93462084732528e+05,-8.05926233065263e+04
8.17147229445889e+03	9.93296843140548e+05,-8.15979445057881e+04
8.27349069813962e+03	9.93129581597302e+05,-8.26027587533823e+04
8.37550910182036e+03	9.92960302171218e+05,-8.36070600084789e+04
8.47752750550110e+03	9.92789006954607e+05,-8.46108422407687e+04
8.57954590918183e+03	9.92615698063603e+05,-8.56140994305811e+04
8.68156431286257e+03	9.92440377638095e+05,-8.66168255689997e+04
8.78358271654331e+03	9.92263047841665e+05,-8.76190146579791e+04
8.88560112022404e+03	9.92083710861518e+05,-8.86206607104599e+04
8.98761952390478e+03	9.91902368908418e+05,-8.96217577504841e+04
9.08963792758552e+03	9.91719024216622e+05,-9.06222998133099e+04
9.19165633126625e+03	9.91533679043806e+05,-9.16222809455255e+04
9.29367473494699e+03	9.91346335671003e+05,-9.26216952051631e+04
9.39569313862773e+03	9.91156996402529e+05,-9.36205366618120e+04
9.49771154230847e+03	9.90965663565917e+05,-9.46187993967311e+04
9.59972994598920e+03	9.90772339511841e+05,-9.56164775029617e+04
9.70174834966994e+03	9.90577026614049e+05,-9.66135650854385e+04
9.80376675335068e+03	9.90379727269291e+05,-9.76100562611014e+04
9.90578515703141e+03	9.90180443897244e+05,-9.86059451590060e+04
1.00078035607121e+04	9.89979178940439e+05,-9.96012259204336e+04
1.01098219643929e+04	9.89775934864190e+05,-1.00595892699001e+05
1.02118403680736e+04	9.89570714156516e+05,-1.01589939660771e+05
1.03138587717544e+04	9.89363519328068e+05,-1.02583360984358e+05
1.04158771754351e+04	9.89154352912055e+05,-1.03576150861040e+05
1.05178955791158e+04	9.88943217464162e+05,-1.04568303494861e+05
1.06199139827966e+04	9.88730115562479e+05,-1.05559813102745e+05
1.07219323864773e+04	9.88515049807419e+05,-1.06550673914596e+05
1.08239507901580e+04	9.88298022821646e+05,-1.07540880173409e+05
1.09259691938388e+04	9.88079037249988e+05,-1.08530426135370e+05
1.10279875975195e+04	9.87858095759364e+05,-1.09519306069968e+05
1.11300060012003e+04	9.87635201038702e+05,-1.10507514260092e+05
1.12320244048810e+04	9.87410355798859e+05,-1.11495045002141e+05
1.13340428085617e+04	9.87183562772540e+05,-1.12481892606121e+05
1.14360612122425e+04	9.86954824714213e+05,-1.13468051395755e+05
1.15380796159232e+04	9.86724144400035e+05,-1.14453515708578e+05
1.16400980196039e+04	9.86491524627760e+05,-1.15438279896043e+05
1.17421164232847e+04	9.86256968216663e+05,-1.16422338323621e+05
1.18441348269654e+04	9.86020478007449e+05,-1.17405685370900e+05
1.19461532306461e+04	9.85782056862177e+05,-1.18388315431686e+05
1.20481716343269e+04	9.85541707664169e+05,-1.19370222914102e+05
1.21501900380076e+04	9.85299433317926e+05,-1.20351402240688e+05
1.22522084416884e+04	9.85055236749043e+05,-1.21331847848494e+05
1.23542268453691e+04	9.84809120904121e+05,-1.22311554189184e+05
1.24562452490498e+04	9.84561088750681e+05,-1.23290515729129e+05
1.25582636527306e+04	9.84311143277077e+05,-1.24268726949505e+05
1.26602820564113e+04	9.84059287492406e+05,-1.25246182346385e+05
1.27623004600920e+04	9.83805524426422e+05,-1.26222876430839e+05
1.28643188637728e+04	9.83549857129443e+05,-1.27198803729025e+05
1.29663372674535e+04	9.83292288672266e+05,-1.28173958782284e+05
1.30683556711343e+04	9.83032822146074e+05,-1.29148336147234e+05
1.31703740748150e+04	9.82771460662346e+05,-1.30121930395860e+05
1.32723924784957e+04	9.82508207352765e+05,-1.31094736115608e+05
1.33744108821765e+04	9.82243065369130e+05,-1.32066747909476e+05
1.34764292858572e+04	9.81976037883259e+05,-1.33037960396105e+05
1.35784476895379e+04	9.81707128086900e+05,-1.34008368209867e+05
1.36804660932187e+04	9.81436339191636e+05,-1.34977966000957e+05
1.37824844968994e+04	9.81163674428796e+05,-1.35946748435481e+05
1.38845029005801e+04	9.80889137049352e+05,-1.36914710195542e+05
1.39865213042609e+04	9.80612730323836e+05,-1.37881845979332e+05
1.40885397079416e+04	9.80334457542234e+05,-1.38848150501213e+05
1.41905581116224e+04	9.80054322013902e+05,-1.39813618491809e+05
1.42925765153031e+04	9.79772327067459e+05,-1.40778244698088e+05
1.43945949189838e+04	9.79488476050701e+05,-1.41742023883448e+05
1.44966133226646e+04	9.79202772330498e+05,-1.42704950827800e+05
1.45986317263453e+04	9.78915219292699e+05,-1.43667020327653e+05
1.47006501300260e+04	9.78625820342034e+05,-1.44628227196199e+05
1.48026685337068e+04	9.78334578902018e+05,-1.45588566263389e+05
1.49046869373875e+04	9.78041498414852e+05,-1.46548032376021e+05
1.50067053410683e+04	9.77746582341323e+05,-1.47506620397817e+05
1.51087237447490e+04	9.77449834160706e+05,-1.48464325209507e+05
1.52107421484297e+04	9.77151257370666e+05,-1.49421141708903e+05
1.53127605521105e+04	9.76850855487156e+05,-1.50377064810985e+05
1.54147789557912e+04	9.76548632044318e+05,-1.51332089447971e+05
1.55167973594719e+04	9.76244590594383e+05,-1.52286210569404e+05
1.56188157631527e+04	9.75938734707567e+05,-1.53239423142220e+05
1.57208341668334e+04	9.75631067971974e+05,-1.54191722150831e+05
1.58228525705141e+04	9.75321593993494e+05,-1.55143102597195e+05
1.59248709741949e+04	9.75010316395697e+05,-1.56093559500897e+05
1.60268893778756e+04	9.74697238819733e+05,-1.57043087899217e+05
1.61289077815564e+04	9.74382364924232e+05,-1.57991682847209e+05
1.62309261852371e+04	9.74065698385196e+05,-1.58939339417769e+05
1.63329445889178e+04	9.73747242895899e+05,-1.59886052701710e+05
1.64349629925986e+04	9.73427002166784e+05,-1.60831817807832e+05
1.65369813962793e+04	9.73104979925356e+05,-1.61776629862996e+05
1.66389997999600e+04	9.72781179916078e+05,-1.62720484012189e+05
1.67410182036408e+04	9.72455605900270e+05,-1.63663375418597e+05
1.68430366073215e+04	9.72128261656001e+05,-1.64605299263672e+05
1.69450550110023e+04	9.71799150977982e+05,-1.65546250747202e+05
1.70470734146830e+04	9.71468277677466e+05,-1.66486225087374e+05
1.71490918183637e+04	9.71135645582137e+05,-1.67425217520846e+05
1.72511102220445e+04	9.70801258536007e+05,-1.68363223302809e+05
1.73531286257252e+04	9.70465120399308e+05,-1.69300237707054e+05
1.74551470294059e+04	9.70127235048384e+05,-1.70236256026035e+05
1.75571654330867e+04	9.69787606375588e+05,-1.71171273570935e+05
1.76591838367674e+04	9.69446238289172e+05,-1.72105285671725e+05
1.77612022404481e+04	9.69103134713179e+05,-1.73038287677232e+05
1.78632206441289e+04	9.68758299587339e+05,-1.73970274955196e+05
1.79652390478096e+04	9.68411736866955e+05,-1.74901242892333e+05
1.80672574514904e+04	9.68063450522799e+05,-1.75831186894394e+05
1.81692758551711e+04	9.67713444541004e+05,-1.76760102386225e+05
1.82712942588518e+04	9.67361722922953e+05,-1.77687984811829e+05
1.83733126625326e+04	9.67008289685170e+05,-1.78614829634418e+05
1.84753310662133e+04	9.66653148859213e+05,-1.79540632336474e+05
1.85773494698940e+04	9.66296304491563e+05,-1.80465388419806e+05
1.86793678735748e+04	9.65937760643514e+05,-1.81389093405605e+05
1.87813862772555e+04	9.65577521391065e+05,-1.82311742834499e+05
1.88834046809363e+04	9.65215590824808e+05,-1.83233332266607e+05
1.89854230846170e+04	9.64851973049819e+05,-1.84153857281595e+05
1.90874414882977e+04	9.64486672185548e+05,-1.85073313478728e+05
1.91894598919785e+04	9.64119692365706e+05,-1.85991696476920e+05
1.92914782956592e+04	9.63751037738156e+05,-1.86909001914791e+05
1.93934966993399e+04	9.63380712464804e+05,-1.87825225450711e+05
1.94955151030207e+04	9.63008720721484e+05,-1.88740362762856e+05
1.95975335067014e+04	9.62635066697848e+05,-1.89654409549256e+05
1.96995519103821e+04	9.62259754597257e+05,-1.90567361527842e+05
1.98015703140629e+04	9.61882788636665e+05,-1.91479214436496e+05
1.99035887177436e+04	9.61504173046511e+05,-1.92389964033096e+05
2.00056071214244e+04	9.61123912070605e+05,-1.93299606095565e+05
2.01076255251051e+04	9.60742009966017e+05,-1.94208136421919e+05
2.02096439287858e+04	9.60358471002964e+05,-1.95115550830305e+05
2.03116623324666e+04	9.59973299464698e+05,-1.96021845159052e+05
2.04136807361473e+04	9.59586499647394e+05,-1.96927015266713e+05
2.05156991398280e+04	9.59198075860036e+05,-1.97831057032106e+05
2.06177175435088e+04	9.58808032424307e+05,-1.98733966354360e+05
2.07197359471895e+04	9.58416373674473e+05,-1.99635739152954e+05
2.08217543508703e+04	9.58023103957271e+05,-2.00536371367756e+05
2.09237727545510e+04	9.57628227631799e+05,-2.01435858959070e+05
2.10257911582317e+04	9.57231749069398e+05,-2.02334197907668e+05
2.11278095619125e+04	9.56833672653541e+05,-2.03231384214833e+05
2.12298279655932e+04	9.56434002779723e+05,-2.04127413902395e+05
2.13318463692739e+04	9.56032743855341e+05,-2.05022283012771e+05
2.14338647729547e+04	9.55629900299586e+05,-2.05915987608998e+05
2.15358831766354e+04	9.55225476543327e+05,-2.06808523774772e+05
2.16379015803161e+04	9.54819477028999e+05,-2.07699887614481e+05
2.17399199839969e+04	9.54411906210485e+05,-2.08590075253242e+05
2.18419383876776e+04	9.54002768553011e+05,-2.09479082836930e+05
2.19439567913584e+04	9.53592068533022e+05,-2.10366906532217e+05
2.20459751950391e+04	9.53179810638075e+05,-2.11253542526601e+05
2.21479935987198e+04	9.52765999366724e+05,-2.12138987028438e+05
2.22500120024006e+04	9.52350639228404e+05,-2.13023236266972e+05
2.23520304060813e+04	9.51933734743319e+05,-2.13906286492368e+05
2.24540488097620e+04	9.51515290442328e+05,-2.14788133975739e+05
2.25560672134428e+04	9.51095310866830e+05,-2.15668775009175e+05
2.26580856171235e+04	9.50673800568650e+05,-2.16548205905771e+05
2.27601040208043e+04	9.50250764109927e+05,-2.17426422999659e+05
2.28621224244850e+04	9.49826206062998e+05,-2.18303422646026e+05
2.29641408281657e+04	9.49400131010284e+05,-2.19179201221146e+05
2.30661592318465e+04	9.48972543544177e+05,-2.20053755122407e+05
2.31681776355272e+04	9.48543448266926e+05,-2.20927080768328e+05
2.32701960392079e+04	9.48112849790523e+05,-2.21799174598591e+05
2.33722144428887e+04	9.47680752736587e+05,-2.22670033074059e+05
2.34742328465694e+04	9.47247161736255e+05,-2.23539652676800e+05
2.35762512502501e+04	9.46812081430061e+05,-2.24408029910110e+05
2.36782696539309e+04	9.46375516467828e+05,-2.25275161298532e+05
2.37802880576116e+04	9.45937471508554e+05,-2.26141043387878e+05
2.38823064612924e+04	9.45497951220292e+05,-2.27005672745248e+05
2.39843248649731e+04	9.45056960280044e+05,-2.27869045959049e+05
2.40863432686538e+04	9.44614503373644e+05,-2.28731159639014e+05
2.41883616723346e+04	9.44170585195642e+05,-2.29592010416219e+05
2.42903800760153e+04	9.43725210449194e+05,-2.30451594943100e+05
2.43923984796960e+04	9.43278383845948e+05,-2.31309909893469e+05
2.44944168833768e+04	9.42830110105928e+05,-2.32166951962531e+05
2.45964352870575e+04	9.42380393957423e+05,-2.33022717866897e+05
2.46984536907382e+04	9.41929240136873e+05,-2.33877204344601e+05
2.48004720944190e+04	9.41476653388756e+05,-2.34730408155109e+05
2.49024904980997e+04	9.41022638465475e+05,-2.35582326079337e+05
2.50045089017805e+04	9.40567200127243e+05,-2.36432954919659e+05
2.51065273054612e+04	9.40110343141974e+05,-2.37282291499923e+05
2.52085457091419e+04	9.39652072285164e+05,-2.38130332665456e+05
2.53105641128227e+04	9.39192392339786e+05,-2.38977075283081e+05
2.54125825165034e+04	9.38731308096171e+05,-2.39822516241120e+05
2.55146009201841e+04	9.38268824351899e+05,-2.40666652449408e+05
2.56166193238649e+04	9.37804945911684e+05,-2.41509480839298e+05
2.57186377275456e+04	9.37339677587264e+05,-2.42350998363671e+05
2.58206561312264e+04	9.36873024197288e+05,-2.43191201996939e+05
2.59226745349071e+04	9.36404990567203e+05,-2.44030088735057e+05
2.60246929385878e+04	9.35935581529143e+05,-2.44867655595523e+05
2.61267113422686e+04	9.35464801921819e+05,-2.45703899617388e+05
2.62287297459493e+04	9.34992656590402e+05,-2.46538817861254e+05
2.63307481496300e+04	9.34519150386419e+05,-2.47372407409284e+05
2.64327665533108e+04	9.34044288167635e+05,-2.48204665365201e+05
2.65347849569915e+04	9.33568074797944e+05,-2.49035588854293e+05
2.66368033606722e+04	9.33090515147261e+05,-2.49865175023412e+05
2.67388217643530e+04	9.32611614091407e+05,-2.50693421040976e+05
2.68408401680337e+04	9.32131376511998e+05,-2.51520324096971e+05
2.69428585717145e+04	9.31649807296341e+05,-2.52345881402949e+05
2.70448769753952e+04	9.31166911337315e+05,-2.53170090192028e+05
2.71468953790759e+04	9.30682693533266e+05,-2.53992947718890e+05
2.72489137827567e+04	9.30197158787896e+05,-2.54814451259778e+05
2.73509321864374e+04	9.29710312010152e+05,-2.55634598112497e+05
2.74529505901181e+04	9.29222158114119e+05,-2.56453385596405e+05
2.75549689937989e+04	9.28732702018907e+05,-2.57270811052415e+05
2.76569873974796e+04	9.28241948648545e+05,-2.58086871842985e+05
2.77590058011604e+04	9.27749902931869e+05,-2.58901565352117e+05
2.78610242048411e+04	9.27256569802418e+05,-2.59714888985348e+05
2.79630426085218e+04	9.26761954198318e+05,-2.60526840169746e+05
2.80650610122026e+04	9.26266061062181e+05,-2.61337416353902e+05
2.81670794158833e+04	9.25768895340992e+05,-2.62146615007922e+05
2.82690978195640e+04	9.25270461986001e+05,-2.62954433623419e+05
2.83711162232448e+04	9.24770765952621e+05,-2.63760869713503e+05
2.84731346269255e+04	9.24269812200312e+05,-2.64565920812776e+05
2.85751530306062e+04	9.23767605692480e+05,-2.65369584477315e+05
2.86771714342870e+04	9.23264151396368e+05,-2.66171858284667e+05
2.87791898379677e+04	9.22759454282947e+05,-2.66972739833836e+05
2.88812082416485e+04	9.22253519326814e+05,-2.67772226745269e+05
2.89832266453292e+04	9.21746351506082e+05,-2.68570316660849e+05
2.90852450490099e+04	9.21237955802274e+05,-2.69367007243874e+05
2.91872634526907e+04	9.20728337200219e+05,-2.70162296179053e+05
2.92892818563714e+04	9.20217500687947e+05,-2.70956181172483e+05
2.93913002600521e+04	9.19705451256578e+05,-2.71748659951640e+05
2.94933186637329e+04	9.19192193900225e+05,-2.72539730265362e+05
2.95953370674136e+04	9.18677733615884e+05,-2.73329389883831e+05
2.96973554710944e+04	9.18162075403329e+05,-2.74117636598560e+05
2.97993738747751e+04	9.17645224265013e+05,-2.74904468222375e+05
2.99013922784558e+04	9.17127185205956e+05,-2.75689882589398e+05
3.00034106821366e+04	9.16607963233649e+05,-2.76473877555024e+05
3.01054290858173e+04	9.16087563357946e+05,-2.77256450995910e+05
3.02074474894980e+04	9.15565990590961e+05,-2.78037600809950e+05
3.03094658931788e+04	9.15043249946968e+05,-2.78817324916259e+05
3.04114842968595e+04	9.14519346442294e+05,-2.79595621255150e+05
3.05135027005402e+04	9.13994285095222e+05,-2.80372487788113e+05
3.06155211042210e+04	9.13468070925885e+05,-2.81147922497797e+05
3.07175395079017e+04	9.12940708956164e+05,-2.81921923387985e+05
3.08195579115825e+04	9.12412204209589e+05,-2.82694488483571e+05
3.09215763152632e+04	9.11882561711239e+05,-2.83465615830541e+05
3.10235947189439e+04	9.11351786487634e+05,-2.84235303495944e+05
3.11256131226247e+04	9.10819883566646e+05,-2.85003549567874e+05
3.12276315263054e+04	9.10286857977387e+05,-2.85770352155439e+05
3.13296499299861e+04	9.09752714750117e+05,-2.86535709388742e+05
3.14316683336669e+04	9.09217458916141e+05,-2.87299619418851e+05
3.15336867373476e+04	9.08681095507711e+05,-2.88062080417775e+05
3.16357051410284e+04	9.08143629557928e+05,-2.88823090578438e+05
3.17377235447091e+04	9.07605066100641e+05,-2.89582648114649e+05
