frequency impedance phase
1.00000000000000e+01	9.99960523140879e+01,-6.28293726675838e-01
1.12018403680736e+02	9.95070618863825e+01,-7.00362930043384e+00
2.14036807361472e+02	9.82235527991208e+01,-1.32094267638838e+01
3.16055211042208e+02	9.62060800202008e+01,-1.91049252593880e+01
4.18073614722945e+02	9.35451447608165e+01,-2.45727566170247e+01
5.20092018403681e+02	9.03515867063530e+01,-2.95254034736137e+01
6.22110422084417e+02	8.67460745903308e+01,-3.39076097978292e+01
7.24128825765153e+02	8.28493522901086e+01,-3.76950932366580e+01
8.26147229445889e+02	7.87744089865253e+01,-4.08905048571936e+01
9.28165633126625e+02	7.46211193274047e+01,-4.35178179952270e+01
1.03018403680736e+03	7.04733447725217e+01,-4.56162487916911e+01
1.13220244048810e+03	6.63981140169600e+01,-4.72345409280833e+01
1.23422084416883e+03	6.24463286862904e+01,-4.84261179760759e+01
1.33623924784957e+03	5.86544289325571e+01,-4.92453130749650e+01
1.43825765153031e+03	5.50465385833237e+01,-4.97446725622656e+01
1.54027605521104e+03	5.16367334848845e+01,-4.99732038546605e+01
1.64229445889178e+03	4.84312002186500e+01,-4.99753826123026e+01
1.74431286257251e+03	4.54301549062397e+01,-4.97907272071722e+01
1.84633126625325e+03	4.26294668263047e+01,-4.94537687212558e+01
1.94834966993399e+03	4.00219807077708e+01,-4.89942765127102e+01
2.05036807361472e+03	3.75985600735537e+01,-4.84376329701477e+01
2.15238647729546e+03	3.53488878072955e+01,-4.78052812094729e+01
2.25440488097620e+03	3.32620643811869e+01,-4.71151940590344e+01
2.35642328465693e+03	3.13270428628012e+01,-4.63823314609382e+01
2.45844168833767e+03	2.95329356461466e+01,-4.56190670305216e+01
2.56046009201840e+03	2.78692225698746e+01,-4.48355739378705e+01
2.66247849569914e+03	2.63258847144266e+01,-4.40401665011087e+01
2.76449689937988e+03	2.48934832444805e+01,-4.32395977826438e+01
2.86651530306061e+03	2.35631984131924e+01,-4.24393157562627e+01
2.96853370674135e+03	2.23268403226143e+01,-4.16436817953206e+01
3.07055211042209e+03	2.11768401982632e+01,-4.08561557056405e+01
3.17257051410282e+03	2.01062287003403e+01,-4.00794515616624e+01
3.27458891778356e+03	1.91086060617975e+01,-3.93156683849428e+01
3.37660732146430e+03	1.81781075195868e+01,-3.85663993518325e+01
3.47862572514503e+03	1.73093665056803e+01,-3.78328228095666e+01
3.58064412882577e+03	1.64974773175651e+01,-3.71157779645387e+01
3.68266253250650e+03	1.57379584356584e+01,-3.64158277105344e+01
3.78468093618724e+03	1.50267172510062e+01,-3.57333107024654e+01
3.88669933986798e+03	1.43600166743046e+01,-3.50683844587137e+01
3.98871774354871e+03	1.37344438885528e+01,-3.44210609936341e+01
4.09073614722945e+03	1.31468813609647e+01,-3.37912362392557e+01
4.19275455091019e+03	1.25944801287776e+01,-3.31787143084778e+01
4.29477295459092e+03	1.20746353059953e+01,-3.25832274771353e+01
4.39679135827166e+03	1.15849637146690e+01,-3.20044526151707e+01
4.49880976195239e+03	1.11232835182130e+01,-3.14420246739098e+01
4.60082816563313e+03	1.06875957203906e+01,-3.08955477335579e+01
4.70284656931387e+03	1.02760673882757e+01,-3.03646040293495e+01
4.80486497299460e+03	9.88701645796756e+00,-2.98487613035555e+01
4.90688337667534e+03	9.51889798614379e+00,-2.93475787714041e+01
5.00890178035607e+03	9.17029171725129e+00,-2.88606119399025e+01
5.11092018403681e+03	8.83989084425619e+00,-2.83874164778561e+01
5.21293858771755e+03	8.52649184968624e+00,-2.79275513016422e+01
5.31495699139828e+03	8.22898532271680e+00,-2.74805810133300e+01
5.41697539507902e+03	7.94634765694411e+00,-2.70460778045429e+01
5.51899379875975e+03	7.67763354204356e+00,-2.66236229202271e+01
5.62101220244049e+03	7.42196917059494e+00,-2.62128077605249e+01
5.72303060612122e+03	7.17854608889758e+00,-2.58132346857059e+01
5.82504900980196e+03	6.94661562756488e+00,-2.54245175781048e+01
5.92706741348270e+03	6.72548385407369e+00,-2.50462822058677e+01
6.02908581716343e+03	6.51450699526535e+00,-2.46781664257127e+01
6.13110422084417e+03	6.31308728307582e+00,-2.43198202555827e+01
6.23312262452490e+03	6.12066918154693e+00,-2.39709058428077e+01
6.33514102820564e+03	5.93673595747352e+00,-2.36310973490143e+01
6.43715943188638e+03	5.76080656091247e+00,-2.33000807693663e+01
6.53917783556711e+03	5.59243278525443e+00,-2.29775537006848e+01
6.64119623924785e+03	5.43119667967525e+00,-2.26632250704574e+01
6.74321464292858e+03	5.27670818957588e+00,-2.23568148366365e+01
6.84523304660932e+03	5.12860300311766e+00,-2.20580536663636e+01
6.94725145029006e+03	4.98654058419576e+00,-2.17666826002895e+01
7.04926985397079e+03	4.85020237419336e+00,-2.14824527079360e+01
7.15128825765153e+03	4.71929014664693e+00,-2.12051247385262e+01
7.25330666133226e+03	4.59352450055275e+00,-2.09344687708596e+01
7.35532506501300e+03	4.47264347947524e+00,-2.06702638651042e+01
7.45734346869374e+03	4.35640130489725e+00,-2.04122977187874e+01
7.55936187237447e+03	4.24456721339835e+00,-2.01603663287843e+01
7.66138027605521e+03	4.13692438827184e+00,-1.99142736606914e+01
7.76339867973594e+03	4.03326897711044e+00,-1.96738313266461e+01
7.86541708341668e+03	3.93340918771296e+00,-1.94388582723706e+01
7.96743548709741e+03	3.83716445540270e+00,-1.92091804739938e+01
8.06945389077815e+03	3.74436467551000e+00,-1.89846306450190e+01
8.17147229445889e+03	3.65484949536597e+00,-1.87650479536510e+01
8.27349069813962e+03	3.56846766068791e+00,-1.85502777505733e+01
8.37550910182036e+03	3.48507641171721e+00,-1.83401713071665e+01
8.47752750550110e+03	3.40454092490168e+00,-1.81345855640772e+01
8.57954590918183e+03	3.32673379630305e+00,-1.79333828899859e+01
8.68156431286257e+03	3.25153456326025e+00,-1.77364308503698e+01
8.78358271654331e+03	3.17882926115442e+00,-1.75436019860196e+01
8.88560112022404e+03	3.10851001240618e+00,-1.73547736010410e+01
8.98761952390478e+03	3.04047464509269e+00,-1.71698275600490e+01
9.08963792758552e+03	2.97462633880372e+00,-1.69886500942502e+01
9.19165633126625e+03	2.91087329556619e+00,-1.68111316160983e+01
9.29367473494699e+03	2.84912843385604e+00,-1.66371665422029e+01
9.39569313862773e+03	2.78930910388835e+00,-1.64666531241719e+01
9.49771154230847e+03	2.73133682253230e+00,-1.62994932870660e+01
9.59972994598920e+03	2.67513702633874e+00,-1.61355924751521e+01
9.70174834966994e+03	2.62063884129616e+00,-1.59748595046437e+01
9.80376675335068e+03	2.56777486804751e+00,-1.58172064231259e+01
9.90578515703141e+03	2.51648098140563e+00,-1.56625483753694e+01
1.00078035607121e+04	2.46669614310154e+00,-1.55108034752479e+01
1.01098219643929e+04	2.41836222678719e+00,-1.53618926834804e+01
1.02118403680736e+04	2.37142385439415e+00,-1.52157396909327e+01
1.03138587717544e+04	2.32582824302201e+00,-1.50722708072195e+01
1.04158771754351e+04	2.28152506159705e+00,-1.49314148543602e+01
1.05178955791158e+04	2.23846629660158e+00,-1.47931030652510e+01
1.06199139827966e+04	2.19660612623028e+00,-1.46572689867259e+01
1.07219323864773e+04	2.15590080237962e+00,-1.45238483869896e+01
1.08239507901580e+04	2.11630853992329e+00,-1.43927791672136e+01
1.09259691938388e+04	2.07778941276826e+00,-1.42640012770966e+01
1.10279875975195e+04	2.04030525622521e+00,-1.41374566342020e+01
1.11300060012003e+04	2.00381957526230e+00,-1.40130890468885e+01
1.12320244048810e+04	1.96829745824378e+00,-1.38908441406651e+01
1.13340428085617e+04	1.93370549578490e+00,-1.37706692878038e+01
1.14360612122425e+04	1.90001170438195e+00,-1.36525135400558e+01
1.15380796159232e+04	1.86718545450126e+00,-1.35363275643221e+01
1.16400980196039e+04	1.83519740283453e+00,-1.34220635811369e+01
1.17421164232847e+04	1.80401942844860e+00,-1.33096753058307e+01
1.18441348269654e+04	1.77362457257798e+00,-1.31991178922436e+01
1.19461532306461e+04	1.74398698182605e+00,-1.30903478788696e+01
1.20481716343269e+04	1.71508185455764e+00,-1.29833231373147e+01
1.21501900380076e+04	1.68688539028121e+00,-1.28780028229604e+01
1.22522084416884e+04	1.65937474183268e+00,-1.27743473277282e+01
1.23542268453691e+04	1.63252797018633e+00,-1.26723182348453e+01
1.24562452490498e+04	1.60632400173009e+00,-1.25718782755193e+01
1.25582636527306e+04	1.58074258785379e+00,-1.24729912874308e+01
1.26602820564113e+04	1.55576426670928e+00,-1.23756221749599e+01
1.27623004600920e+04	1.53137032701068e+00,-1.22797368710660e+01
1.28643188637728e+04	1.50754277375227e+00,-1.21853023007447e+01
1.29663372674535e+04	1.48426429572927e+00,-1.20922863459873e+01
1.30683556711343e+04	1.46151823475465e+00,-1.20006578121762e+01
1.31703740748150e+04	1.43928855647208e+00,-1.19103863958486e+01
1.32723924784957e+04	1.41755982267160e+00,-1.18214426537672e+01
1.33744108821765e+04	1.39631716502078e+00,-1.17337979732372e+01
1.34764292858572e+04	1.37554626012959e+00,-1.16474245436149e+01
1.35784476895379e+04	1.35523330587265e+00,-1.15622953289526e+01
1.36804660932187e+04	1.33536499889725e+00,-1.14783840417301e+01
1.37824844968994e+04	1.31592851325004e+00,-1.13956651176234e+01
1.38845029005801e+04	1.29691148005967e+00,-1.13141136912644e+01
1.39865213042609e+04	1.27830196821639e+00,-1.12337055729485e+01
1.40885397079416e+04	1.26008846599337e+00,-1.11544172262475e+01
1.41905581116224e+04	1.24225986355787e+00,-1.10762257464888e+01
1.42925765153031e+04	1.22480543632371e+00,-1.09991088400617e+01
1.43945949189838e+04	1.20771482909907e+00,-1.09230448045168e+01
1.44966133226646e+04	1.19097804098699e+00,-1.08480125094225e+01
1.45986317263453e+04	1.17458541099788e+00,-1.07739913779462e+01
1.47006501300260e+04	1.15852760433630e+00,-1.07009613691304e+01
1.48026685337068e+04	1.14279559932623e+00,-1.06289029608320e+01
1.49046869373875e+04	1.12738067494120e+00,-1.05577971332986e+01
1.50067053410683e+04	1.11227439890762e+00,-1.04876253533532e+01
1.51087237447490e+04	1.09746861635162e+00,-1.04183695591626e+01
1.52107421484297e+04	1.08295543896120e+00,-1.03500121455651e+01
1.53127605521105e+04	1.06872723463732e+00,-1.02825359499336e+01
1.54147789557912e+04	1.05477661760895e+00,-1.02159242385523e+01
1.55167973594719e+04	1.04109643898852e+00,-1.01501606934855e+01
1.56188157631527e+04	1.02767977774567e+00,-1.00852293999185e+01
1.57208341668334e+04	1.01451993207820e+00,-1.00211148339512e+01
1.58228525705141e+04	1.00161041116056e+00,-9.95780185082584e+00
1.59248709741949e+04	9.88944927251155e-01,-9.89527567357169e+00
1.60268893778756e+04	9.76517388140763e-01,-9.83352188204893e+00
1.61289077815564e+04	9.64321889925431e-01,-9.77252640237691e+00
1.62309261852371e+04	9.52352710088048e-01,-9.71227549673056e+00
1.63329445889178e+04	9.40604300873682e-01,-9.65275575349061e+00
1.64349629925986e+04	9.29071282944533e-01,-9.59395407773360e+00
1.65369813962793e+04	9.17748439301181e-01,-9.53585768204824e+00
1.66389997999600e+04	9.06630709457428e-01,-9.47845407766538e+00
1.67410182036408e+04	8.95713183856793e-01,-9.42173106588935e+00
1.68430366073215e+04	8.84991098519292e-01,-9.36567672981888e+00
1.69450550110023e+04	8.74459829907735e-01,-9.31027942634652e+00
1.70470734146830e+04	8.64114890003367e-01,-9.25552777842577e+00
1.71490918183637e+04	8.53951921581167e-01,-9.20141066759573e+00
1.72511102220445e+04	8.43966693675645e-01,-9.14791722675335e+00
1.73531286257252e+04	8.34155097228421e-01,-9.09503683316400e+00
1.74551470294059e+04	8.24513140909349e-01,-9.04275910170136e+00
1.75571654330867e+04	8.15036947103333e-01,-8.99107387830785e+00
1.76591838367674e+04	8.05722748055390e-01,-8.93997123366765e+00
1.77612022404481e+04	7.96566882166896e-01,-8.88944145708404e+00
1.78632206441289e+04	7.87565790436290e-01,-8.83947505055382e+00
1.79652390478096e+04	7.78716013037859e-01,-8.79006272303129e+00
1.80672574514904e+04	7.70014186032511e-01,-8.74119538487499e+00
1.81692758551711e+04	7.61457038204805e-01,-8.69286414247047e+00
1.82712942588518e+04	7.53041388020689e-01,-8.64506029302265e+00
1.83733126625326e+04	7.44764140700782e-01,-8.59777531951169e+00
1.84753310662133e+04	7.36622285404175e-01,-8.55100088580649e+00
1.85773494698940e+04	7.28612892518055e-01,-8.50472883193003e+00
1.86793678735748e+04	7.20733111048630e-01,-8.45895116947138e+00
1.87813862772555e+04	7.12980166109048e-01,-8.41366007713884e+00
1.88834046809363e+04	7.05351356500253e-01,-8.36884789644958e+00
1.89854230846170e+04	6.97844052380846e-01,-8.32450712755063e+00
1.90874414882977e+04	6.90455693022265e-01,-8.28063042516690e+00
1.91894598919785e+04	6.83183784645717e-01,-8.23721059467153e+00
1.92914782956592e+04	6.76025898337505e-01,-8.19424058827463e+00
1.93934966993399e+04	6.68979668039510e-01,-8.15171350132601e+00
1.94955151030207e+04	6.62042788611772e-01,-8.10962256872811e+00
1.95975335067014e+04	6.55213013964225e-01,-8.06796116145550e+00
1.96995519103821e+04	6.48488155254781e-01,-8.02672278317698e+00
1.98015703140629e+04	6.41866079151103e-01,-7.98590106697707e+00
1.99035887177436e+04	6.35344706153506e-01,-7.94548977217348e+00
2.00056071214244e+04	6.28922008976547e-01,-7.90548278122719e+00
2.01076255251051e+04	6.22596010986970e-01,-7.86587409674221e+00
2.02096439287858e+04	6.16364784695789e-01,-7.82665783855190e+00
2.03116623324666e+04	6.10226450302372e-01,-7.78782824088902e+00
2.04136807361473e+04	6.04179174288494e-01,-7.74937964963683e+00
2.05156991398280e+04	5.98221168060409e-01,-7.71130651965835e+00
2.06177175435088e+04	5.92350686637084e-01,-7.67360341220140e+00
2.07197359471895e+04	5.86566027382816e-01,-7.63626499237696e+00
2.08217543508703e+04	5.80865528782519e-01,-7.59928602670830e+00
2.09237727545510e+04	5.75247569258056e-01,-7.56266138074873e+00
2.10257911582317e+04	5.69710566024058e-01,-7.52638601676571e+00
2.11278095619125e+04	5.64252973981727e-01,-7.49045499148920e+00
2.12298279655932e+04	5.58873284649194e-01,-7.45486345392220e+00
2.13318463692739e+04	5.53570025127064e-01,-7.41960664321143e+00
2.14338647729547e+04	5.48341757097835e-01,-7.38467988657642e+00
2.15358831766354e+04	5.43187075857916e-01,-7.35007859729490e+00
2.16379015803161e+04	5.38104609381067e-01,-7.31579827274301e+00
2.17399199839969e+04	5.33093017412073e-01,-7.28183449248840e+00
2.18419383876776e+04	5.28150990589559e-01,-7.24818291643466e+00
2.19439567913584e+04	5.23277249596890e-01,-7.21483928301548e+00
2.20459751950391e+04	5.18470544340108e-01,-7.18179940743700e+00
2.21479935987198e+04	5.13729653151960e-01,-7.14905917996686e+00
2.22500120024006e+04	5.09053382021053e-01,-7.11661456426848e+00
2.23520304060813e+04	5.04440563845248e-01,-7.08446159577934e+00
2.24540488097620e+04	4.99890057708420e-01,-7.05259638013166e+00
2.25560672134428e+04	4.95400748179757e-01,-7.02101509161451e+00
2.26580856171235e+04	4.90971544634808e-01,-6.98971397167579e+00
2.27601040208043e+04	4.86601380597485e-01,-6.95868932746312e+00
2.28621224244850e+04	4.82289213102331e-01,-6.92793753040241e+00
2.29641408281657e+04	4.78034022076292e-01,-6.89745501481284e+00
2.30661592318465e+04	4.73834809739365e-01,-6.86723827655745e+00
2.31681776355272e+04	4.69690600023425e-01,-6.83728387172803e+00
2.32701960392079e+04	4.65600438008637e-01,-6.80758841536339e+00
2.33722144428887e+04	4.61563389376825e-01,-6.77814858020016e+00
2.34742328465694e+04	4.57578539881237e-01,-6.74896109545491e+00
2.35762512502501e+04	4.53644994832134e-01,-6.72002274563689e+00
2.36782696539309e+04	4.49761878597667e-01,-6.69133036939046e+00
2.37802880576116e+04	4.45928334119544e-01,-6.66288085836628e+00
2.38823064612924e+04	4.42143522442957e-01,-6.63467115612051e+00
2.39843248649731e+04	4.38406622260320e-01,-6.60669825704113e+00
2.40863432686538e+04	4.34716829468346e-01,-6.57895920530076e+00
2.41883616723346e+04	4.31073356738021e-01,-6.55145109383507e+00
2.42903800760153e+04	4.27475433097042e-01,-6.52417106334611e+00
2.43923984796960e+04	4.23922303524319e-01,-6.49711630132988e+00
2.44944168833768e+04	4.20413228556138e-01,-6.47028404112747e+00
2.45964352870575e+04	4.16947483903612e-01,-6.44367156099903e+00
2.46984536907382e+04	4.13524360081034e-01,-6.41727618322002e+00
2.48004720944190e+04	4.10143162044801e-01,-6.39109527319911e+00
2.49024904980997e+04	4.06803208842557e-01,-6.36512623861704e+00
2.50045089017805e+04	4.03503833272217e-01,-6.33936652858598e+00
2.51065273054612e+04	4.00244381550579e-01,-6.31381363282882e+00
2.52085457091419e+04	3.97024212991193e-01,-6.28846508087769e+00
2.53105641128227e+04	3.93842699691208e-01,-6.26331844129139e+00
2.54125825165034e+04	3.90699226226909e-01,-6.23837132089110e+00
2.55146009201841e+04	3.87593189357665e-01,-6.21362136401391e+00
2.56166193238649e+04	3.84523997738036e-01,-6.18906625178364e+00
2.57186377275456e+04	3.81491071637767e-01,-6.16470370139858e+00
2.58206561312264e+04	3.78493842669435e-01,-6.14053146543562e+00
2.59226745349071e+04	3.75531753523513e-01,-6.11654733117033e+00
2.60246929385878e+04	3.72604257710605e-01,-6.09274911991265e+00
2.61267113422686e+04	3.69710819310653e-01,-6.06913468635768e+00
2.62287297459493e+04	3.66850912728889e-01,-6.04570191795121e+00
2.63307481496300e+04	3.64024022458322e-01,-6.02244873426960e+00
2.64327665533108e+04	3.61229642848574e-01,-5.99937308641369e+00
2.65347849569915e+04	3.58467277880863e-01,-5.97647295641627e+00
2.66368033606722e+04	3.55736440948946e-01,-5.95374635666280e+00
2.67388217643530e+04	3.53036654645850e-01,-5.93119132932512e+00
2.68408401680337e+04	3.50367450556209e-01,-5.90880594580764e+00
2.69428585717145e+04	3.47728369054047e-01,-5.88658830620587e+00
2.70448769753952e+04	3.45118959105836e-01,-5.86453653877690e+00
2.71468953790759e+04	3.42538778078681e-01,-5.84264879942141e+00
2.72489137827567e+04	3.39987391553473e-01,-5.82092327117718e+00
2.73509321864374e+04	3.37464373142875e-01,-5.79935816372353e+00
2.74529505901181e+04	3.34969304313974e-01,-5.77795171289661e+00
2.75549689937989e+04	3.32501774215504e-01,-5.75670218021516e+00
2.76569873974796e+04	3.30061379509457e-01,-5.73560785241652e+00
2.77590058011604e+04	3.27647724206998e-01,-5.71466704100263e+00
2.78610242048411e+04	3.25260419508531e-01,-5.69387808179577e+00
2.79630426085218e+04	3.22899083647816e-01,-5.67323933450379e+00
2.80650610122026e+04	3.20563341739996e-01,-5.65274918229458e+00
2.81670794158833e+04	3.18252825633453e-01,-5.63240603137963e+00
2.82690978195640e+04	3.15967173765358e-01,-5.61220831060631e+00
2.83711162232448e+04	3.13706031020822e-01,-5.59215447105884e+00
2.84731346269255e+04	3.11469048595545e-01,-5.57224298566758e+00
2.85751530306062e+04	3.09255883861859e-01,-5.55247234882649e+00
2.86771714342870e+04	3.07066200238080e-01,-5.53284107601866e+00
2.87791898379677e+04	3.04899667061060e-01,-5.51334770344951e+00
2.88812082416485e+04	3.02755959461869e-01,-5.49399078768769e+00
2.89832266453292e+04	3.00634758244504e-01,-5.47476890531332e+00
2.90852450490099e+04	2.98535749767545e-01,-5.45568065257354e+00
2.91872634526907e+04	2.96458625828687e-01,-5.43672464504507e+00
2.92892818563714e+04	2.94403083552049e-01,-5.41789951730372e+00
2.93913002600521e+04	2.92368825278202e-01,-5.39920392260059e+00
2.94933186637329e+04	2.90355558456835e-01,-5.38063653254489e+00
2.95953370674136e+04	2.88362995541980e-01,-5.36219603679314e+00
2.96973554710944e+04	2.86390853889739e-01,-5.34388114274468e+00
2.97993738747751e+04	2.84438855658435e-01,-5.32569057524329e+00
2.99013922784558e+04	2.82506727711128e-01,-5.30762307628479e+00
3.00034106821366e+04	2.80594201520429e-01,-5.28967740473046e+00
3.01054290858173e+04	2.78701013075547e-01,-5.27185233602625e+00
3.02074474894980e+04	2.76826902791524e-01,-5.25414666192744e+00
3.03094658931788e+04	2.74971615420575e-01,-5.23655919022887e+00
3.04114842968595e+04	2.73134899965503e-01,-5.21908874450043e+00
3.05135027005402e+04	2.71316509595116e-01,-5.20173416382774e+00
3.06155211042210e+04	2.69516201561601e-01,-5.18449430255796e+00
3.07175395079017e+04	2.67733737119801e-01,-5.16736803005050e+00
3.08195579115825e+04	2.65968881448348e-01,-5.15035423043269e+00
3.09215763152632e+04	2.64221403572599e-01,-5.13345180236009e+00
3.10235947189439e+04	2.62491076289331e-01,-5.11665965878145e+00
3.11256131226247e+04	2.60777676093151e-01,-5.09997672670832e+00
3.12276315263054e+04	2.59080983104571e-01,-5.08340194698892e+00
3.13296499299861e+04	2.57400780999713e-01,-5.06693427408646e+00
3.14316683336669e+04	2.55736856941590e-01,-5.05057267586169e+00
3.15336867373476e+04	2.54089001512939e-01,-5.03431613335953e+00
3.16357051410284e+04	2.52457008650551e-01,-5.01816364059984e+00
3.17377235447091e+04	2.50840675581067e-01,-5.00211420437206e+00
