frequency impedance phase
1.00000000000000e+01	1.00054391457149e-03,6.28343334977051e-01
1.12018403680736e+02	2.17420369065177e-03,7.07332809927806e+00
2.14036807361472e+02	1.64332917362805e-02,1.36950922325528e+01
3.16055211042208e+02	7.67049889400582e-02,2.06665988337491e+01
4.18073614722945e+02	2.45222166774038e-01,2.81843435247938e+01
5.20092018403681e+02	6.28798939440465e-01,3.64819970442657e+01
6.22110422084417e+02	1.40658270338474e+00,4.58462044380429e+01
7.24128825765153e+02	2.87971202848564e+00,5.66329293242388e+01
8.26147229445889e+02	5.56027520481600e+00,6.92767822892738e+01
9.28165633126625e+02	1.03298920872761e+01,8.42682586224099e+01
1.03018403680736e+03	1.87121821248515e+01,1.02024762244826e+02
1.13220244048810e+03	3.32817987346181e+01,1.22455083989094e+02
1.23422084416883e+03	5.80019821211097e+01,1.43761376209545e+02
1.33623924784957e+03	9.73088062727204e+01,1.59913652400214e+02
1.43825765153031e+03	1.50818850468253e+02,1.58315362341502e+02
1.54027605521104e+03	2.03787635288368e+02,1.26389920696531e+02
1.64229445889178e+03	2.32047502182910e+02,7.07703055427054e+01
1.74431286257251e+03	2.28793210356242e+02,1.62389797288576e+01
1.84633126625325e+03	2.07816524616657e+02,-2.16689222937134e+01
1.94834966993399e+03	1.83021098081827e+02,-4.32552156462868e+01
2.05036807361472e+03	1.60692049313249e+02,-5.40333644289672e+01
2.15238647729546e+03	1.42323034944714e+02,-5.86277651869675e+01
2.25440488097620e+03	1.27635360030079e+02,-5.98817913588341e+01
2.35642328465693e+03	1.15933439817184e+02,-5.93829498283387e+01
2.45844168833767e+03	1.06548473654408e+02,-5.79936559987392e+01
2.56046009201840e+03	9.89418497485894e+01,-5.61809378085957e+01
2.66247849569914e+03	9.27039887597822e+01,-5.41982891290792e+01
2.76449689937988e+03	8.75288284466819e+01,-5.21829944357854e+01
2.86651530306061e+03	8.31878839310917e+01,-5.02082868069363e+01
2.96853370674135e+03	7.95094868443497e+01,-4.83116740669152e+01
3.07055211042209e+03	7.63633982084004e+01,-4.65105857385834e+01
3.17257051410282e+03	7.36497146459150e+01,-4.48111628244364e+01
3.27458891778356e+03	7.12909288430881e+01,-4.32132681996120e+01
3.37660732146430e+03	6.92262355910643e+01,-4.17133744191039e+01
3.47862572514503e+03	6.74074205995259e+01,-4.03062386327014e+01
3.58064412882577e+03	6.57958651197803e+01,-3.89858739526305e+01
3.68266253250650e+03	6.43603414032556e+01,-3.77461077420418e+01
3.78468093618724e+03	6.30753731780053e+01,-3.65808952469866e+01
3.88669933986798e+03	6.19200035913024e+01,-3.54844876601849e+01
3.98871774354871e+03	6.08768599217948e+01,-3.44515136312103e+01
4.09073614722945e+03	5.99314366164437e+01,-3.34770097120120e+01
4.19275455091019e+03	5.90715405420707e+01,-3.25564212234356e+01
4.29477295459092e+03	5.82868579295448e+01,-3.16855865931135e+01
4.39679135827166e+03	5.75686134637039e+01,-3.08607130831562e+01
4.49880976195239e+03	5.69092997702491e+01,-3.00783486796422e+01
4.60082816563313e+03	5.63024611432773e+01,-2.93353529766341e+01
4.70284656931387e+03	5.57425194047403e+01,-2.86288686893937e+01
4.80486497299460e+03	5.52246327431604e+01,-2.79562946922532e+01
4.90688337667534e+03	5.47445805567414e+01,-2.73152610231958e+01
5.00890178035607e+03	5.42986689440798e+01,-2.67036060226019e+01
5.11092018403681e+03	5.38836526976916e+01,-2.61193556110360e+01
5.21293858771755e+03	5.34966705705431e+01,-2.55607046184908e+01
5.31495699139828e+03	5.31351912816864e+01,-2.50260000286830e+01
5.41697539507902e+03	5.27969682602171e+01,-2.45137259800562e+01
5.51899379875975e+03	5.24800015379768e+01,-2.40224903594612e+01
5.62101220244049e+03	5.21825055206912e+01,-2.35510128283078e+01
5.72303060612122e+03	5.19028816166740e+01,-2.30981141300882e+01
5.82504900980196e+03	5.16396948982896e+01,-2.26627065398872e+01
5.92706741348270e+03	5.13916541263651e+01,-2.22437853292025e+01
6.02908581716343e+03	5.11575945909426e+01,-2.18404211321141e+01
6.13110422084417e+03	5.09364633202230e+01,-2.14517531110058e+01
6.23312262452490e+03	5.07273062886190e+01,-2.10769828313515e+01
6.33514102820564e+03	5.05292573186574e+01,-2.07153687654106e+01
6.43715943188638e+03	5.03415284232073e+01,-2.03662213539824e+01
6.53917783556711e+03	5.01634013766575e+01,-2.00288985636885e+01
6.64119623924785e+03	4.99942203381293e+01,-1.97028018846391e+01
6.74321464292858e+03	4.98333853781254e+01,-1.93873727198609e+01
6.84523304660932e+03	4.96803467833524e+01,-1.90820891236227e+01
6.94725145029006e+03	4.95346000337794e+01,-1.87864628508468e+01
7.04926985397079e+03	4.93956813620455e+01,-1.85000366842390e+01
7.15128825765153e+03	4.92631638187064e+01,-1.82223820096650e+01
7.25330666133226e+03	4.91366537780095e+01,-1.79530966137211e+01
7.35532506501300e+03	4.90157878282776e+01,-1.76918026804427e+01
7.45734346869374e+03	4.89002299988924e+01,-1.74381449667293e+01
7.55936187237447e+03	4.87896692825493e+01,-1.71917891383693e+01
7.66138027605521e+03	4.86838174171107e+01,-1.69524202505830e+01
7.76339867973594e+03	4.85824068961956e+01,-1.67197413587805e+01
7.86541708341668e+03	4.84851891817308e+01,-1.64934722468054e+01
7.96743548709741e+03	4.83919330951900e+01,-1.62733482613178e+01
8.06945389077815e+03	4.83024233672383e+01,-1.60591192421881e+01
8.17147229445889e+03	4.82164593280706e+01,-1.58505485398516e+01
8.27349069813962e+03	4.81338537229414e+01,-1.56474121115267e+01
8.37550910182036e+03	4.80544316392932e+01,-1.54494976890406e+01
8.47752750550110e+03	4.79780295335378e+01,-1.52566040117534e+01
8.57954590918183e+03	4.79044943469728e+01,-1.50685401187350e+01
8.68156431286257e+03	4.78336827015566e+01,-1.48851246949356e+01
8.78358271654331e+03	4.77654601673441e+01,-1.47061854666163e+01
8.88560112022404e+03	4.76997005943243e+01,-1.45315586417702e+01
8.98761952390478e+03	4.76362855022251e+01,-1.43610883916810e+01
9.08963792758552e+03	4.75751035225664e+01,-1.41946263701378e+01
9.19165633126625e+03	4.75160498878774e+01,-1.40320312671535e+01
9.29367473494699e+03	4.74590259635418e+01,-1.38731683943350e+01
9.39569313862773e+03	4.74039388182277e+01,-1.37179092993151e+01
9.49771154230847e+03	4.73507008292852e+01,-1.35661314068979e+01
9.59972994598920e+03	4.72992293198731e+01,-1.34177176847807e+01
9.70174834966994e+03	4.72494462249146e+01,-1.32725563319110e+01
9.80376675335068e+03	4.72012777832755e+01,-1.31305404877072e+01
9.90578515703141e+03	4.71546542538239e+01,-1.29915679605305e+01
1.00078035607121e+04	4.71095096532633e+01,-1.28555409739350e+01
1.01098219643929e+04	4.70657815138396e+01,-1.27223659293510e+01
1.02118403680736e+04	4.70234106592078e+01,-1.25919531839707e+01
1.03138587717544e+04	4.69823409969104e+01,-1.24642168427096e+01
1.04158771754351e+04	4.69425193260654e+01,-1.23390745632136e+01
1.05178955791158e+04	4.69038951589962e+01,-1.22164473729632e+01
1.06199139827966e+04	4.68664205556536e+01,-1.20962594976074e+01
1.07219323864773e+04	4.68300499697842e+01,-1.19784381997294e+01
1.08239507901580e+04	4.67947401058986e+01,-1.18629136273096e+01
1.09259691938388e+04	4.67604497861761e+01,-1.17496186712106e+01
1.10279875975195e+04	4.67271398265189e+01,-1.16384888310625e+01
1.11300060012003e+04	4.66947729210414e+01,-1.15294620889745e+01
1.12320244048810e+04	4.66633135343409e+01,-1.14224787905444e+01
1.13340428085617e+04	4.66327278009524e+01,-1.13174815326759e+01
1.14360612122425e+04	4.66029834314423e+01,-1.12144150577536e+01
1.15380796159232e+04	4.65740496246430e+01,-1.11132261537581e+01
1.16400980196039e+04	4.65458969855690e+01,-1.10138635599333e+01
1.17421164232847e+04	4.65184974485992e+01,-1.09162778776498e+01
1.18441348269654e+04	4.64918242055365e+01,-1.08204214861311e+01
1.19461532306461e+04	4.64658516381966e+01,-1.07262484627355e+01
1.20481716343269e+04	4.64405552551973e+01,-1.06337145075088e+01
1.21501900380076e+04	4.64159116326535e+01,-1.05427768717406e+01
1.22522084416884e+04	4.63918983585009e+01,-1.04533942902794e+01
1.23542268453691e+04	4.63684939801969e+01,-1.03655269173765e+01
1.24562452490498e+04	4.63456779555651e+01,-1.02791362658448e+01
1.25582636527306e+04	4.63234306065679e+01,-1.01941851493342e+01
1.26602820564113e+04	4.63017330758089e+01,-1.01106376275382e+01
1.27623004600920e+04	4.62805672855815e+01,-1.00284589541590e+01
1.28643188637728e+04	4.62599158992941e+01,-9.94761552746962e+00
1.29663372674535e+04	4.62397622851144e+01,-9.86807484332313e+00
1.30683556711343e+04	4.62200904816884e+01,-9.78980545046745e+00
1.31703740748150e+04	4.62008851657975e+01,-9.71277690803554e+00
1.32723924784957e+04	4.61821316218312e+01,-9.63695974508685e+00
1.33744108821765e+04	4.61638157129574e+01,-9.56232542208602e+00
1.34764292858572e+04	4.61459238538836e+01,-9.48884629421053e+00
1.35784476895379e+04	4.61284429851093e+01,-9.41649557638681e+00
1.36804660932187e+04	4.61113605485760e+01,-9.34524730995970e+00
1.37824844968994e+04	4.60946644646286e+01,-9.27507633090740e+00
1.38845029005801e+04	4.60783431102085e+01,-9.20595823951817e+00
1.39865213042609e+04	4.60623852982017e+01,-9.13786937145051e+00
1.40885397079416e+04	4.60467802578739e+01,-9.07078677010410e+00
1.41905581116224e+04	4.60315176163270e+01,-9.00468816023213e+00
1.42925765153031e+04	4.60165873809157e+01,-8.93955192272980e+00
1.43945949189838e+04	4.60019799225679e+01,-8.87535707053955e+00
1.44966133226646e+04	4.59876859599561e+01,-8.81208322561334e+00
1.45986317263453e+04	4.59736965444707e+01,-8.74971059688024e+00
1.47006501300260e+04	4.59600030459479e+01,-8.68821995916693e+00
1.48026685337068e+04	4.59465971391099e+01,-8.62759263302370e+00
1.49046869373875e+04	4.59334707906769e+01,-8.56781046541105e+00
1.50067053410683e+04	4.59206162471123e+01,-8.50885581120350e+00
1.51087237447490e+04	4.59080260229662e+01,-8.45071151547104e+00
1.52107421484297e+04	4.58956928897842e+01,-8.39336089649991e+00
1.53127605521105e+04	4.58836098655496e+01,-8.33678772951714e+00
1.54147789557912e+04	4.58717702046298e+01,-8.28097623108452e+00
1.55167973594719e+04	4.58601673882005e+01,-8.22591104413022e+00
1.56188157631527e+04	4.58487951151202e+01,-8.17157722358796e+00
1.57208341668334e+04	4.58376472932325e+01,-8.11796022261471e+00
1.58228525705141e+04	4.58267180310724e+01,-8.06504587935996e+00
1.59248709741949e+04	4.58160016299548e+01,-8.01282040426117e+00
1.60268893778756e+04	4.58054925764269e+01,-7.96127036784053e+00
1.61289077815564e+04	4.57951855350636e+01,-7.91038268898039e+00
1.62309261852371e+04	4.57850753415886e+01,-7.86014462365578e+00
1.63329445889178e+04	4.57751569963056e+01,-7.81054375410238e+00
1.64349629925986e+04	4.57654256578217e+01,-7.76156797840160e+00
1.65369813962793e+04	4.57558766370500e+01,-7.71320550046314e+00
1.66389997999600e+04	4.57465053914761e+01,-7.66544482038772e+00
1.67410182036408e+04	4.57373075196758e+01,-7.61827472519323e+00
1.68430366073215e+04	4.57282787560712e+01,-7.57168427988859e+00
1.69450550110023e+04	4.57194149659138e+01,-7.52566281887941e+00
1.70470734146830e+04	4.57107121404827e+01,-7.48019993769211e+00
1.71490918183637e+04	4.57021663924884e+01,-7.43528548500198e+00
1.72511102220445e+04	4.56937739516704e+01,-7.39090955495249e+00
1.73531286257252e+04	4.56855311605823e+01,-7.34706247975359e+00
1.74551470294059e+04	4.56774344705517e+01,-7.30373482254714e+00
1.75571654330867e+04	4.56694804378093e+01,-7.26091737052799e+00
1.76591838367674e+04	4.56616657197782e+01,-7.21860112831044e+00
1.77612022404481e+04	4.56539870715160e+01,-7.17677731152982e+00
1.78632206441289e+04	4.56464413423016e+01,-7.13543734066922e+00
1.79652390478096e+04	4.56390254723617e+01,-7.09457283510245e+00
1.80672574514904e+04	4.56317364897296e+01,-7.05417560734433e+00
1.81692758551711e+04	4.56245715072295e+01,-7.01423765750007e+00
1.82712942588518e+04	4.56175277195816e+01,-6.97475116790502e+00
1.83733126625326e+04	4.56106024006228e+01,-6.93570849794848e+00
1.84753310662133e+04	4.56037929006358e+01,-6.89710217907286e+00
1.85773494698940e+04	4.55970966437848e+01,-6.85892490994236e+00
1.86793678735748e+04	4.55905111256495e+01,-6.82116955177345e+00
1.87813862772555e+04	4.55840339108563e+01,-6.78382912382215e+00
1.88834046809363e+04	4.55776626307998e+01,-6.74689679902068e+00
1.89854230846170e+04	4.55713949814527e+01,-6.71036589975840e+00
1.90874414882977e+04	4.55652287212587e+01,-6.67422989380166e+00
1.91894598919785e+04	4.55591616691053e+01,-6.63848239034652e+00
1.92914782956592e+04	4.55531917023737e+01,-6.60311713620047e+00
1.93934966993399e+04	4.55473167550611e+01,-6.56812801208660e+00
1.94955151030207e+04	4.55415348159742e+01,-6.53350902906724e+00
1.95975335067014e+04	4.55358439269885e+01,-6.49925432508180e+00
1.96995519103821e+04	4.55302421813729e+01,-6.46535816159473e+00
1.98015703140629e+04	4.55247277221754e+01,-6.43181492034894e+00
1.99035887177436e+04	4.55192987406678e+01,-6.39861910022236e+00
2.00056071214244e+04	4.55139534748469e+01,-6.36576531418181e+00
2.01076255251051e+04	4.55086902079903e+01,-6.33324828633251e+00
2.02096439287858e+04	4.55035072672638e+01,-6.30106284905822e+00
2.03116623324666e+04	4.54984030223781e+01,-6.26920394025006e+00
2.04136807361473e+04	4.54933758842946e+01,-6.23766660062009e+00
2.05156991398280e+04	4.54884243039759e+01,-6.20644597109630e+00
2.06177175435088e+04	4.54835467711809e+01,-6.17553729029731e+00
2.07197359471895e+04	4.54787418133016e+01,-6.14493589208258e+00
2.08217543508703e+04	4.54740079942414e+01,-6.11463720317667e+00
2.09237727545510e+04	4.54693439133312e+01,-6.08463674086446e+00
2.10257911582317e+04	4.54647482042836e+01,-6.05493011075418e+00
2.11278095619125e+04	4.54602195341832e+01,-6.02551300460728e+00
2.12298279655932e+04	4.54557566025104e+01,-5.99638119823194e+00
2.13318463692739e+04	4.54513581402000e+01,-5.96753054943803e+00
2.14338647729547e+04	4.54470229087299e+01,-5.93895699605186e+00
2.15358831766354e+04	4.54427496992417e+01,-5.91065655398852e+00
2.16379015803161e+04	4.54385373316905e+01,-5.88262531537929e+00
2.17399199839969e+04	4.54343846540228e+01,-5.85485944675378e+00
2.18419383876776e+04	4.54302905413820e+01,-5.82735518727280e+00
2.19439567913584e+04	4.54262538953397e+01,-5.80010884701274e+00
2.20459751950391e+04	4.54222736431528e+01,-5.77311680529718e+00
2.21479935987198e+04	4.54183487370447e+01,-5.74637550907631e+00
2.22500120024006e+04	4.54144781535097e+01,-5.71988147135183e+00
2.23520304060813e+04	4.54106608926403e+01,-5.69363126964510e+00
2.24540488097620e+04	4.54068959774758e+01,-5.66762154450851e+00
2.25560672134428e+04	4.54031824533722e+01,-5.64184899807736e+00
2.26580856171235e+04	4.53995193873920e+01,-5.61631039266226e+00
2.27601040208043e+04	4.53959058677136e+01,-5.59100254937932e+00
2.28621224244850e+04	4.53923410030591e+01,-5.56592234681827e+00
2.29641408281657e+04	4.53888239221402e+01,-5.54106671974645e+00
2.30661592318465e+04	4.53853537731223e+01,-5.51643265784717e+00
2.31681776355272e+04	4.53819297231036e+01,-5.49201720449381e+00
2.32701960392079e+04	4.53785509576123e+01,-5.46781745555424e+00
2.33722144428887e+04	4.53752166801182e+01,-5.44383055822913e+00
2.34742328465694e+04	4.53719261115593e+01,-5.42005370992003e+00
2.35762512502501e+04	4.53686784898840e+01,-5.39648415712745e+00
2.36782696539309e+04	4.53654730696061e+01,-5.37311919437789e+00
2.37802880576116e+04	4.53623091213737e+01,-5.34995616317972e+00
2.38823064612924e+04	4.53591859315516e+01,-5.32699245100474e+00
2.39843248649731e+04	4.53561028018156e+01,-5.30422549029757e+00
2.40863432686538e+04	4.53530590487596e+01,-5.28165275750974e+00
2.41883616723346e+04	4.53500540035138e+01,-5.25927177215914e+00
2.42903800760153e+04	4.53470870113751e+01,-5.23708009591318e+00
2.43923984796960e+04	4.53441574314473e+01,-5.21507533169554e+00
2.44944168833768e+04	4.53412646362935e+01,-5.19325512281521e+00
2.45964352870575e+04	4.53384080115967e+01,-5.17161715211843e+00
2.46984536907382e+04	4.53355869558322e+01,-5.15015914116067e+00
2.48004720944190e+04	4.53328008799485e+01,-5.12887884940063e+00
2.49024904980997e+04	4.53300492070576e+01,-5.10777407341327e+00
2.50045089017805e+04	4.53273313721345e+01,-5.08684264612329e+00
2.51065273054612e+04	4.53246468217254e+01,-5.06608243605702e+00
2.52085457091419e+04	4.53219950136634e+01,-5.04549134661285e+00
2.53105641128227e+04	4.53193754167938e+01,-5.02506731534956e+00
2.54125825165034e+04	4.53167875107057e+01,-5.00480831329233e+00
2.55146009201841e+04	4.53142307854721e+01,-4.98471234425503e+00
2.56166193238649e+04	4.53117047413973e+01,-4.96477744417959e+00
2.57186377275456e+04	4.53092088887708e+01,-4.94500168049094e+00
2.58206561312264e+04	4.53067427476287e+01,-4.92538315146735e+00
2.59226745349071e+04	4.53043058475216e+01,-4.90591998562638e+00
2.60246929385878e+04	4.53018977272884e+01,-4.88661034112472e+00
2.61267113422686e+04	4.52995179348371e+01,-4.86745240517288e+00
2.62287297459493e+04	4.52971660269314e+01,-4.84844439346367e+00
2.63307481496300e+04	4.52948415689828e+01,-4.82958454961373e+00
2.64327665533108e+04	4.52925441348486e+01,-4.81087114461858e+00
2.65347849569915e+04	4.52902733066358e+01,-4.79230247632018e+00
2.66368033606722e+04	4.52880286745095e+01,-4.77387686888700e+00
2.67388217643530e+04	4.52858098365071e+01,-4.75559267230623e+00
2.68408401680337e+04	4.52836163983572e+01,-4.73744826188750e+00
2.69428585717145e+04	4.52814479733036e+01,-4.71944203777801e+00
2.70448769753952e+04	4.52793041819335e+01,-4.70157242448907e+00
2.71468953790759e+04	4.52771846520111e+01,-4.68383787043336e+00
2.72489137827567e+04	4.52750890183144e+01,-4.66623684747216e+00
2.73509321864374e+04	4.52730169224776e+01,-4.64876785047389e+00
2.74529505901181e+04	4.52709680128367e+01,-4.63142939688194e+00
2.75549689937989e+04	4.52689419442796e+01,-4.61422002629156e+00
2.76569873974796e+04	4.52669383780999e+01,-4.59713830003805e+00
2.77590058011604e+04	4.52649569818544e+01,-4.58018280079254e+00
2.78610242048411e+04	4.52629974292250e+01,-4.56335213216705e+00
2.79630426085218e+04	4.52610593998828e+01,-4.54664491832898e+00
2.80650610122026e+04	4.52591425793573e+01,-4.53005980362366e+00
2.81670794158833e+04	4.52572466589076e+01,-4.51359545220468e+00
2.82690978195640e+04	4.52553713353976e+01,-4.49725054767359e+00
2.83711162232448e+04	4.52535163111741e+01,-4.48102379272608e+00
2.84731346269255e+04	4.52516812939484e+01,-4.46491390880678e+00
2.85751530306062e+04	4.52498659966801e+01,-4.44891963577119e+00
2.86771714342870e+04	4.52480701374646e+01,-4.43303973155523e+00
2.87791898379677e+04	4.52462934394229e+01,-4.41727297185122e+00
2.88812082416485e+04	4.52445356305947e+01,-4.40161814979121e+00
2.89832266453292e+04	4.52427964438330e+01,-4.38607407563764e+00
2.90852450490099e+04	4.52410756167031e+01,-4.37063957647944e+00
2.91872634526907e+04	4.52393728913824e+01,-4.35531349593535e+00
2.92892818563714e+04	4.52376880145637e+01,-4.34009469386349e+00
2.93913002600521e+04	4.52360207373602e+01,-4.32498204607673e+00
2.94933186637329e+04	4.52343708152135e+01,-4.30997444406415e+00
2.95953370674136e+04	4.52327380078034e+01,-4.29507079471815e+00
2.96973554710944e+04	4.52311220789596e+01,-4.28027002006800e+00
2.97993738747751e+04	4.52295227965765e+01,-4.26557105701784e+00
2.99013922784558e+04	4.52279399325290e+01,-4.25097285709084e+00
3.00034106821366e+04	4.52263732625909e+01,-4.23647438617843e+00
3.01054290858173e+04	4.52248225663551e+01,-4.22207462429464e+00
3.02074474894980e+04	4.52232876271559e+01,-4.20777256533522e+00
3.03094658931788e+04	4.52217682319927e+01,-4.19356721684249e+00
3.04114842968595e+04	4.52202641714558e+01,-4.17945759977415e+00
3.05135027005402e+04	4.52187752396541e+01,-4.16544274827697e+00
3.06155211042210e+04	4.52173012341444e+01,-4.15152170946518e+00
3.07175395079017e+04	4.52158419558617e+01,-4.13769354320328e+00
3.08195579115825e+04	4.52143972090525e+01,-4.12395732189349e+00
3.09215763152632e+04	4.52129668012080e+01,-4.11031213026678e+00
3.10235947189439e+04	4.52115505430006e+01,-4.09675706517844e+00
3.11256131226247e+04	4.52101482482201e+01,-4.08329123540818e+00
3.12276315263054e+04	4.52087597337130e+01,-4.06991376146309e+00
3.13296499299861e+04	4.52073848193218e+01,-4.05662377538562e+00
3.14316683336669e+04	4.52060233278267e+01,-4.04342042056464e+00
3.15336867373476e+04	4.52046750848881e+01,-4.03030285155024e+00
3.16357051410284e+04	4.52033399189906e+01,-4.01727023387268e+00
3.17377235447091e+04	4.52020176613883e+01,-4.00432174386414e+00
