frequency impedance phase
1.00000000000000e+01	-5.00015103295525e+01,-4.71186125516197e-01
1.12018403680736e+02	-5.03781530951307e+01,-5.27890778989947e+00
2.14036807361472e+02	-5.14033017891659e+01,-1.00880608723578e+01
3.16055211042208e+02	-5.31281867960311e+01,-1.48887206703754e+01
4.18073614722945e+02	-5.56360807958631e+01,-1.96477831883269e+01
5.20092018403681e+02	-5.90403092597366e+01,-2.42929175064163e+01
6.22110422084417e+02	-6.34769751172910e+01,-2.86910926391272e+01
7.24128825765153e+02	-6.90865002587955e+01,-3.26216462265725e+01
8.26147229445889e+02	-7.59751791018297e+01,-3.57480269063663e+01
9.28165633126625e+02	-8.41470251938812e+01,-3.76012464451586e+01
1.03018403680736e+03	-9.34035092422230e+01,-3.76021140287373e+01
1.13220244048810e+03	-1.03234005108953e+02,-3.51608286655078e+01
1.23422084416883e+03	-1.12764700878535e+02,-2.98777269274284e+01
1.33623924784957e+03	-1.20865441589528e+02,-2.17985095478980e+01
1.43825765153031e+03	-1.26458379381109e+02,-1.15726529547693e+01
1.54027605521104e+03	-1.28905927503679e+02,-3.47090361545361e-01
1.64229445889178e+03	-1.28229441248857e+02,1.06002073241256e+01
1.74431286257251e+03	-1.25015302977824e+02,2.02616595678620e+01
1.84633126625325e+03	-1.20113071496914e+02,2.81029437228702e+01
1.94834966993399e+03	-1.14342002024162e+02,3.40276156616998e+01
2.05036807361472e+03	-1.08331455021719e+02,3.82192633830798e+01
2.15238647729546e+03	-1.02490127543500e+02,4.09826078331343e+01
2.25440488097620e+03	-9.70441577238415e+01,4.26375132590682e+01
2.35642328465693e+03	-9.20932223618464e+01,4.34666240384959e+01
2.45844168833767e+03	-8.76594670486263e+01,4.36984112402247e+01
2.56046009201840e+03	-8.37223956454570e+01,4.35083097553500e+01
2.66247849569914e+03	-8.02410545210721e+01,4.30269096270877e+01
2.76449689937988e+03	-7.71670354622460e+01,4.23495556837107e+01
2.86651530306061e+03	-7.44515517135208e+01,4.15449916199382e+01
2.96853370674135e+03	-7.20489483625000e+01,4.06623456725213e+01
3.07055211042209e+03	-6.99181795437108e+01,3.97364736503659e+01
3.17257051410282e+03	-6.80231850945936e+01,3.87919236985541e+01
3.27458891778356e+03	-6.63327099599404e+01,3.78458290716823e+01
3.37660732146430e+03	-6.48198716230739e+01,3.69099997312337e+01
3.47862572514503e+03	-6.34616407396113e+01,3.59924281688330e+01
3.58064412882577e+03	-6.22383199505415e+01,3.50983720107140e+01
3.68266253250650e+03	-6.11330610813306e+01,3.42311326390739e+01
3.78468093618724e+03	-6.01314366421046e+01,3.33926159374411e+01
3.88669933986798e+03	-5.92210688738067e+01,3.25837368410317e+01
3.98871774354871e+03	-5.83913133919403e+01,3.18047117217014e+01
4.09073614722945e+03	-5.76329918169659e+01,3.10552700191722e+01
4.19275455091019e+03	-5.69381669823340e+01,3.03348075576810e+01
4.29477295459092e+03	-5.62999544477156e+01,2.96424976178599e+01
4.39679135827166e+03	-5.57123646065102e+01,2.89773713096661e+01
4.49880976195239e+03	-5.51701703909458e+01,2.83383755722285e+01
4.60082816563313e+03	-5.46687963057507e+01,2.77244148277049e+01
4.70284656931387e+03	-5.42042251964776e+01,2.71343806690911e+01
4.80486497299460e+03	-5.37729197546835e+01,2.65671727769383e+01
4.90688337667534e+03	-5.33717562734740e+01,2.60217134038509e+01
5.00890178035607e+03	-5.29979685976490e+01,2.54969571445386e+01
5.11092018403681e+03	-5.26491005714235e+01,2.49918972566862e+01
5.21293858771755e+03	-5.23229655833115e+01,2.45055694668841e+01
5.31495699139828e+03	-5.20176120519507e+01,2.40370539527750e+01
5.41697539507902e+03	-5.17312938971642e+01,2.35854760134034e+01
5.51899379875975e+03	-5.14624452050456e+01,2.31500058072692e+01
5.62101220244049e+03	-5.12096584307738e+01,2.27298574393056e+01
5.72303060612122e+03	-5.09716655935967e+01,2.23242876049219e+01
5.82504900980196e+03	-5.07473220094167e+01,2.19325939447726e+01
5.92706741348270e+03	-5.05355921812980e+01,2.15541132232415e+01
6.02908581716343e+03	-5.03355375299643e+01,2.11882194132213e+01
6.13110422084417e+03	-5.01463056973758e+01,2.08343217470203e+01
6.23312262452490e+03	-4.99671211987214e+01,2.04918627762143e+01
6.33514102820564e+03	-4.97972772332380e+01,2.01603164705440e+01
6.43715943188638e+03	-4.96361284934421e+01,1.98391863764737e+01
6.53917783556711e+03	-4.94830848367037e+01,1.95280038489701e+01
6.64119623924785e+03	-4.93376057034437e+01,1.92263263648410e+01
6.74321464292858e+03	-4.91991951832970e+01,1.89337359221290e+01
6.84523304660932e+03	-4.90673976449233e+01,1.86498375272607e+01
6.94725145029006e+03	-4.89417938572274e+01,1.83742577696329e+01
7.04926985397079e+03	-4.88219975399515e+01,1.81066434818971e+01
7.15128825765153e+03	-4.87076522902406e+01,1.78466604832227e+01
7.25330666133226e+03	-4.85984288391112e+01,1.75939924021711e+01
7.35532506501300e+03	-4.84940225979896e+01,1.73483395754096e+01
7.45734346869374e+03	-4.83941514607994e+01,1.71094180182797e+01
7.55936187237447e+03	-4.82985538316252e+01,1.68769584631432e+01
7.66138027605521e+03	-4.82069868518654e+01,1.66507054614467e+01
7.76339867973594e+03	-4.81192248041320e+01,1.64304165455206e+01
7.86541708341668e+03	-4.80350576730226e+01,1.62158614462590e+01
7.96743548709741e+03	-4.79542898453716e+01,1.60068213629840e+01
8.06945389077815e+03	-4.78767389347216e+01,1.58030882819775e+01
8.17147229445889e+03	-4.78022347166120e+01,1.56044643403527e+01
8.27349069813962e+03	-4.77306181628842e+01,1.54107612321305e+01
8.37550910182036e+03	-4.76617405645977e+01,1.52217996535788e+01
8.47752750550110e+03	-4.75954627343690e+01,1.50374087850646e+01
8.57954590918183e+03	-4.75316542799998e+01,1.48574258068485e+01
8.68156431286257e+03	-4.74701929421906e+01,1.46816954464300e+01
8.78358271654331e+03	-4.74109639899420e+01,1.45100695552158e+01
8.88560112022404e+03	-4.73538596679587e+01,1.43424067124459e+01
8.98761952390478e+03	-4.72987786909927e+01,1.41785718544549e+01
9.08963792758552e+03	-4.72456257806131e+01,1.40184359274902e+01
9.19165633126625e+03	-4.71943112403696e+01,1.38618755624352e+01
9.29367473494699e+03	-4.71447505657476e+01,1.37087727699098e+01
9.39569313862773e+03	-4.70968640856846e+01,1.35590146543297e+01
9.49771154230847e+03	-4.70505766327571e+01,1.34124931456132e+01
9.59972994598920e+03	-4.70058172394363e+01,1.32691047473202e+01
9.70174834966994e+03	-4.69625188580796e+01,1.31287503000975e+01
9.80376675335068e+03	-4.69206181025530e+01,1.29913347593873e+01
9.90578515703141e+03	-4.68800550095911e+01,1.28567669864342e+01
1.00078035607121e+04	-4.68407728181843e+01,1.27249595516939e+01
1.01098219643929e+04	-4.68027177654479e+01,1.25958285498161e+01
1.02118403680736e+04	-4.67658388975778e+01,1.24692934254309e+01
1.03138587717544e+04	-4.67300878946255e+01,1.23452768090266e+01
1.04158771754351e+04	-4.66954189079486e+01,1.22237043622569e+01
1.05178955791158e+04	-4.66617884092940e+01,1.21045046320633e+01
1.06199139827966e+04	-4.66291550505709e+01,1.19876089130436e+01
1.07219323864773e+04	-4.65974795334518e+01,1.18729511175363e+01
1.08239507901580e+04	-4.65667244880219e+01,1.17604676529296e+01
1.09259691938388e+04	-4.65368543597622e+01,1.16500973057373e+01
1.10279875975195e+04	-4.65078353042176e+01,1.15417811320174e+01
1.11300060012003e+04	-4.64796350887556e+01,1.14354623537364e+01
1.12320244048810e+04	-4.64522230008741e+01,1.13310862607132e+01
1.13340428085617e+04	-4.64255697625624e+01,1.12286001177977e+01
1.14360612122425e+04	-4.63996474502615e+01,1.11279530769658e+01
1.15380796159232e+04	-4.63744294200066e+01,1.10290960940337e+01
1.16400980196039e+04	-4.63498902373729e+01,1.09319818497125e+01
1.17421164232847e+04	-4.63260056118725e+01,1.08365646747449e+01
1.18441348269654e+04	-4.63027523354815e+01,1.07428004788828e+01
1.19461532306461e+04	-4.62801082250027e+01,1.06506466834784e+01
1.20481716343269e+04	-4.62580520679905e+01,1.05600621574806e+01
1.21501900380076e+04	-4.62365635719893e+01,1.04710071566365e+01
1.22522084416884e+04	-4.62156233168528e+01,1.03834432657157e+01
1.23542268453691e+04	-4.61952127099337e+01,1.02973333435846e+01
1.24562452490498e+04	-4.61753139439458e+01,1.02126414709692e+01
1.25582636527306e+04	-4.61559099573175e+01,1.01293329007541e+01
1.26602820564113e+04	-4.61369843968705e+01,1.00473740106782e+01
1.27623004600920e+04	-4.61185215826666e+01,9.96673225829269e+00
1.28643188637728e+04	-4.61005064748814e+01,9.88737613805704e+00
1.29663372674535e+04	-4.60829246425702e+01,9.80927514045752e+00
1.30683556711343e+04	-4.60657622342054e+01,9.73239971303627e+00
1.31703740748150e+04	-4.60490059498680e+01,9.65672122323057e+00
1.32723924784957e+04	-4.60326430149910e+01,9.58221192292354e+00
1.33744108821765e+04	-4.60166611555537e+01,9.50884491461667e+00
1.34764292858572e+04	-4.60010485746372e+01,9.43659411913823e+00
1.35784476895379e+04	-4.59857939302545e+01,9.36543424480727e+00
1.36804660932187e+04	-4.59708863143788e+01,9.29534075797730e+00
1.37824844968994e+04	-4.59563152330940e+01,9.22628985488909e+00
1.38845029005801e+04	-4.59420705878000e+01,9.15825843476516e+00
1.39865213042609e+04	-4.59281426574098e+01,9.09122407408227e+00
1.40885397079416e+04	-4.59145220814772e+01,9.02516500196339e+00
1.41905581116224e+04	-4.59011998442017e+01,8.96006007663236e+00
1.42925765153031e+04	-4.58881672592564e+01,8.89588876287793e+00
1.43945949189838e+04	-4.58754159553934e+01,8.83263111047835e+00
1.44966133226646e+04	-4.58629378627786e+01,8.77026773353772e+00
1.45986317263453e+04	-4.58507252000167e+01,8.70877979069105e+00
1.47006501300260e+04	-4.58387704618237e+01,8.64814896613499e+00
1.48026685337068e+04	-4.58270664073128e+01,8.58835745144447e+00
1.49046869373875e+04	-4.58156060488571e+01,8.52938792813810e+00
1.50067053410683e+04	-4.58043826414983e+01,8.47122355095627e+00
1.51087237447490e+04	-4.57933896728692e+01,8.41384793181847e+00
1.52107421484297e+04	-4.57826208536037e+01,8.35724512442774e+00
1.53127605521105e+04	-4.57720701082049e+01,8.30139960949253e+00
1.54147789557912e+04	-4.57617315663493e+01,8.24629628053685e+00
1.55167973594719e+04	-4.57515995546009e+01,8.19192043027164e+00
1.56188157631527e+04	-4.57416685885149e+01,8.13825773750227e+00
1.57208341668334e+04	-4.57319333651089e+01,8.08529425454702e+00
1.58228525705141e+04	-4.57223887556832e+01,8.03301639514383e+00
1.59248709741949e+04	-4.57130297989712e+01,7.98141092282372e+00
1.60268893778756e+04	-4.57038516946020e+01,7.93046493972934e+00
1.61289077815564e+04	-4.56948497968613e+01,7.88016587585933e+00
1.62309261852371e+04	-4.56860196087318e+01,7.83050147871996e+00
1.63329445889178e+04	-4.56773567762014e+01,7.78145980336557e+00
1.64349629925986e+04	-4.56688570828248e+01,7.73302920281146e+00
1.65369813962793e+04	-4.56605164445252e+01,7.68519831880296e+00
1.66389997999600e+04	-4.56523309046244e+01,7.63795607292506e+00
1.67410182036408e+04	-4.56442966290898e+01,7.59129165803846e+00
1.68430366073215e+04	-4.56364099019879e+01,7.54519453002795e+00
1.69450550110023e+04	-4.56286671211330e+01,7.49965439984998e+00
1.70470734146830e+04	-4.56210647939231e+01,7.45466122586688e+00
1.71490918183637e+04	-4.56135995333526e+01,7.41020520645562e+00
1.72511102220445e+04	-4.56062680541935e+01,7.36627677287986e+00
1.73531286257252e+04	-4.55990671693379e+01,7.32286658241436e+00
1.74551470294059e+04	-4.55919937862922e+01,7.27996551171177e+00
1.75571654330867e+04	-4.55850449038180e+01,7.23756465040086e+00
1.76591838367674e+04	-4.55782176087110e+01,7.19565529490818e+00
1.77612022404481e+04	-4.55715090727124e+01,7.15422894249323e+00
1.78632206441289e+04	-4.55649165495461e+01,7.11327728548864e+00
1.79652390478096e+04	-4.55584373720763e+01,7.07279220573778e+00
1.80672574514904e+04	-4.55520689495793e+01,7.03276576922101e+00
1.81692758551711e+04	-4.55458087651251e+01,6.99319022086444e+00
1.82712942588518e+04	-4.55396543730632e+01,6.95405797952233e+00
1.83733126625326e+04	-4.55336033966077e+01,6.91536163312824e+00
1.84753310662133e+04	-4.55276535255177e+01,6.87709393400677e+00
1.85773494698940e+04	-4.55218025138689e+01,6.83924779434096e+00
1.86793678735748e+04	-4.55160481779117e+01,6.80181628178820e+00
1.87813862772555e+04	-4.55103883940118e+01,6.76479261524014e+00
1.88834046809363e+04	-4.55048210966710e+01,6.72817016072044e+00
1.89854230846170e+04	-4.54993442766231e+01,6.69194242741486e+00
1.90874414882977e+04	-4.54939559790029e+01,6.65610306382994e+00
1.91894598919785e+04	-4.54886543015836e+01,6.62064585407392e+00
1.92914782956592e+04	-4.54834373930816e+01,6.58556471425708e+00
1.93934966993399e+04	-4.54783034515244e+01,6.55085368900494e+00
1.94955151030207e+04	-4.54732507226792e+01,6.51650694808234e+00
1.95975335067014e+04	-4.54682774985396e+01,6.48251878312300e+00
1.96995519103821e+04	-4.54633821158689e+01,6.44888360446132e+00
1.98015703140629e+04	-4.54585629547956e+01,6.41559593806193e+00
1.99035887177436e+04	-4.54538184374611e+01,6.38265042254485e+00
2.00056071214244e+04	-4.54491470267161e+01,6.35004180630135e+00
2.01076255251051e+04	-4.54445472248635e+01,6.31776494469857e+00
2.02096439287858e+04	-4.54400175724480e+01,6.28581479736828e+00
2.03116623324666e+04	-4.54355566470868e+01,6.25418642557854e+00
2.04136807361473e+04	-4.54311630623437e+01,6.22287498968440e+00
2.05156991398280e+04	-4.54268354666417e+01,6.19187574665389e+00
2.06177175435088e+04	-4.54225725422150e+01,6.16118404766939e+00
2.07197359471895e+04	-4.54183730040963e+01,6.13079533579856e+00
2.08217543508703e+04	-4.54142355991406e+01,6.10070514373507e+00
2.09237727545510e+04	-4.54101591050822e+01,6.07090909160562e+00
2.10257911582317e+04	-4.54061423296242e+01,6.04140288484025e+00
2.11278095619125e+04	-4.54021841095594e+01,6.01218231210528e+00
2.12298279655932e+04	-4.53982833099211e+01,5.98324324329595e+00
2.13318463692739e+04	-4.53944388231629e+01,5.95458162758685e+00
2.14338647729547e+04	-4.53906495683657e+01,5.92619349153818e+00
2.15358831766354e+04	-4.53869144904721e+01,5.89807493725593e+00
2.16379015803161e+04	-4.53832325595460e+01,5.87022214060461e+00
2.17399199839969e+04	-4.53796027700566e+01,5.84263134947031e+00
2.18419383876776e+04	-4.53760241401869e+01,5.81529888207252e+00
2.19439567913584e+04	-4.53724957111641e+01,5.78822112532360e+00
2.20459751950391e+04	-4.53690165466128e+01,5.76139453323326e+00
2.21479935987198e+04	-4.53655857319285e+01,5.73481562535813e+00
2.22500120024006e+04	-4.53622023736724e+01,5.70848098529352e+00
2.23520304060813e+04	-4.53588655989850e+01,5.68238725920698e+00
2.24540488097620e+04	-4.53555745550191e+01,5.65653115441192e+00
2.25560672134428e+04	-4.53523284083903e+01,5.63090943797956e+00
2.26580856171235e+04	-4.53491263446463e+01,5.60551893538972e+00
2.27601040208043e+04	-4.53459675677514e+01,5.58035652921662e+00
2.28621224244850e+04	-4.53428512995890e+01,5.55541915785107e+00
2.29641408281657e+04	-4.53397767794782e+01,5.53070381425638e+00
2.30661592318465e+04	-4.53367432637068e+01,5.50620754475683e+00
2.31681776355272e+04	-4.53337500250779e+01,5.48192744786010e+00
2.32701960392079e+04	-4.53307963524716e+01,5.45786067310832e+00
2.33722144428887e+04	-4.53278815504191e+01,5.43400441996133e+00
2.34742328465694e+04	-4.53250049386908e+01,5.41035593670815e+00
2.35762512502501e+04	-4.53221658518965e+01,5.38691251940699e+00
2.36782696539309e+04	-4.53193636390984e+01,5.36367151085275e+00
2.37802880576116e+04	-4.53165976634350e+01,5.34063029957172e+00
2.38823064612924e+04	-4.53138673017569e+01,5.31778631884103e+00
2.39843248649731e+04	-4.53111719442738e+01,5.29513704573427e+00
2.40863432686538e+04	-4.53085109942114e+01,5.27268000019096e+00
2.41883616723346e+04	-4.53058838674792e+01,5.25041274410954e+00
2.42903800760153e+04	-4.53032899923478e+01,5.22833288046376e+00
2.43923984796960e+04	-4.53007288091355e+01,5.20643805244075e+00
2.44944168833768e+04	-4.52981997699053e+01,5.18472594260095e+00
2.45964352870575e+04	-4.52957023381689e+01,5.16319427205952e+00
2.46984536907382e+04	-4.52932359886011e+01,5.14184079968691e+00
2.48004720944190e+04	-4.52908002067620e+01,5.12066332133064e+00
2.49024904980997e+04	-4.52883944888261e+01,5.09965966905491e+00
2.50045089017805e+04	-4.52860183413214e+01,5.07882771040010e+00
2.51065273054612e+04	-4.52836712808739e+01,5.05816534765957e+00
2.52085457091419e+04	-4.52813528339606e+01,5.03767051717439e+00
2.53105641128227e+04	-4.52790625366691e+01,5.01734118864498e+00
2.54125825165034e+04	-4.52767999344645e+01,4.99717536445989e+00
2.55146009201841e+04	-4.52745645819622e+01,4.97717107903986e+00
2.56166193238649e+04	-4.52723560427074e+01,4.95732639819865e+00
2.57186377275456e+04	-4.52701738889611e+01,4.93763941851821e+00
2.58206561312264e+04	-4.52680177014915e+01,4.91810826673934e+00
2.59226745349071e+04	-4.52658870693718e+01,4.89873109916640e+00
2.60246929385878e+04	-4.52637815897829e+01,4.87950610108614e+00
2.61267113422686e+04	-4.52617008678224e+01,4.86043148620040e+00
2.62287297459493e+04	-4.52596445163180e+01,4.84150549607203e+00
2.63307481496300e+04	-4.52576121556464e+01,4.82272639958335e+00
2.64327665533108e+04	-4.52556034135576e+01,4.80409249240771e+00
2.65347849569915e+04	-4.52536179250028e+01,4.78560209649292e+00
2.66368033606722e+04	-4.52516553319681e+01,4.76725355955677e+00
2.67388217643530e+04	-4.52497152833124e+01,4.74904525459403e+00
2.68408401680337e+04	-4.52477974346090e+01,4.73097557939503e+00
2.69428585717145e+04	-4.52459014479921e+01,4.71304295607446e+00
2.70448769753952e+04	-4.52440269920075e+01,4.69524583061165e+00
2.71468953790759e+04	-4.52421737414664e+01,4.67758267240122e+00
2.72489137827567e+04	-4.52403413773043e+01,4.66005197381283e+00
2.73509321864374e+04	-4.52385295864425e+01,4.64265224976245e+00
2.74529505901181e+04	-4.52367380616536e+01,4.62538203729193e+00
2.75549689937989e+04	-4.52349665014312e+01,4.60823989515789e+00
2.76569873974796e+04	-4.52332146098616e+01,4.59122440343113e+00
2.77590058011604e+04	-4.52314820965003e+01,4.57433416310330e+00
2.78610242048411e+04	-4.52297686762505e+01,4.55756779570276e+00
2.79630426085218e+04	-4.52280740692455e+01,4.54092394291967e+00
2.80650610122026e+04	-4.52263980007340e+01,4.52440126623809e+00
2.81670794158833e+04	-4.52247402009677e+01,4.50799844657661e+00
2.82690978195640e+04	-4.52231004050927e+01,4.49171418393724e+00
2.83711162232448e+04	-4.52214783530430e+01,4.47554719706097e+00
2.84731346269255e+04	-4.52198737894369e+01,4.45949622309130e+00
2.85751530306062e+04	-4.52182864634761e+01,4.44356001724515e+00
2.86771714342870e+04	-4.52167161288470e+01,4.42773735249063e+00
2.87791898379677e+04	-4.52151625436251e+01,4.41202701923141e+00
2.88812082416485e+04	-4.52136254701810e+01,4.39642782499787e+00
2.89832266453292e+04	-4.52121046750891e+01,4.38093859414556e+00
2.90852450490099e+04	-4.52105999290391e+01,4.36555816755890e+00
2.91872634526907e+04	-4.52091110067486e+01,4.35028540236168e+00
2.92892818563714e+04	-4.52076376868784e+01,4.33511917163384e+00
2.93913002600521e+04	-4.52061797519504e+01,4.32005836413377e+00
2.94933186637329e+04	-4.52047369882664e+01,4.30510188402641e+00
2.95953370674136e+04	-4.52033091858298e+01,4.29024865061690e+00
2.96973554710944e+04	-4.52018961382687e+01,4.27549759809070e+00
2.97993738747751e+04	-4.52004976427610e+01,4.26084767525728e+00
2.99013922784558e+04	-4.51991134999615e+01,4.24629784530092e+00
3.00034106821366e+04	-4.51977435139302e+01,4.23184708553524e+00
3.01054290858173e+04	-4.51963874920629e+01,4.21749438716356e+00
3.02074474894980e+04	-4.51950452450232e+01,4.20323875504336e+00
3.03094658931788e+04	-4.51937165866761e+01,4.18907920745678e+00
3.04114842968595e+04	-4.51924013340232e+01,4.17501477588416e+00
3.05135027005402e+04	-4.51910993071394e+01,4.16104450478349e+00
3.06155211042210e+04	-4.51898103291110e+01,4.14716745137321e+00
3.07175395079017e+04	-4.51885342259757e+01,4.13338268542008e+00
3.08195579115825e+04	-4.51872708266634e+01,4.11968928903135e+00
3.09215763152632e+04	-4.51860199629385e+01,4.10608635645029e+00
3.10235947189439e+04	-4.51847814693440e+01,4.09257299385625e+00
3.11256131226247e+04	-4.51835551831463e+01,4.07914831916910e+00
3.12276315263054e+04	-4.51823409442818e+01,4.06581146185636e+00
3.13296499299861e+04	-4.51811385953042e+01,4.05256156274529e+00
3.14316683336669e+04	-4.51799479813332e+01,4.03939777383808e+00
3.15336867373476e+04	-4.51787689500049e+01,4.02631925813050e+00
3.16357051410284e+04	-4.51776013514223e+01,4.01332518943447e+00
