frequency impedance phase
1.00000000000000e+00	-4.00249431907391e+00,-6.47220153647050e-02
1.39998799976000e+00	-4.00296964597829e+00,-9.06381717085030e-02
1.79997599951999e+00	-4.00360444487043e+00,-1.16582482272215e-01
2.19996399927999e+00	-4.00439960499519e+00,-1.42563031037176e-01
2.59995199903998e+00	-4.00535624201960e+00,-1.68587932099157e-01
2.99993999879998e+00	-4.00647570079908e+00,-1.94665336411878e-01
3.39992799855997e+00	-4.00775955872024e+00,-2.20803438561292e-01
3.79991599831997e+00	-4.00920962963275e+00,-2.47010483575141e-01
4.19990399807996e+00	-4.01082796838563e+00,-2.73294773773181e-01
4.59989199783996e+00	-4.01261687598539e+00,-2.99664675662365e-01
4.99987999759995e+00	-4.01457890539596e+00,-3.26128626881201e-01
5.39986799735995e+00	-4.01671686800301e+00,-3.52695143197163e-01
5.79985599711994e+00	-4.01903384076802e+00,-3.79372825560603e-01
6.19984399687994e+00	-4.02153317409998e+00,-4.06170367217677e-01
6.59983199663993e+00	-4.02421850047605e+00,-4.33096560884746e-01
6.99981999639993e+00	-4.02709374384517e+00,-4.60160305985747e-01
7.39980799615992e+00	-4.03016312985234e+00,-4.87370615952701e-01
7.79979599591992e+00	-4.03343119692470e+00,-5.14736625589660e-01
8.19978399567991e+00	-4.03690280826397e+00,-5.42267598498234e-01
8.59977199543991e+00	-4.04058316479453e+00,-5.69972934562245e-01
8.99975999519990e+00	-4.04447781911982e+00,-5.97862177487339e-01
9.39974799495990e+00	-4.04859269054497e+00,-6.25945022390022e-01
9.79973599471989e+00	-4.05293408122819e+00,-6.54231323428463e-01
1.01997239944799e+01	-4.05750869352839e+00,-6.82731101465521e-01
1.05997119942399e+01	-4.06232364862270e+00,-7.11454551751989e-01
1.09996999939999e+01	-4.06738650647287e+00,-7.40412051615403e-01
1.13996879937599e+01	-4.07270528722642e+00,-7.69614168136609e-01
1.17996759935199e+01	-4.07828849414507e+00,-7.99071665792935e-01
1.21996639932799e+01	-4.08414513816054e+00,-8.28795514042571e-01
1.25996519930399e+01	-4.09028476416551e+00,-8.58796894820748e-01
1.29996399927999e+01	-4.09671747915637e+00,-8.89087209912613e-01
1.33996279925598e+01	-4.10345398235349e+00,-9.19678088162513e-01
1.37996159923198e+01	-4.11050559743437e+00,-9.50581392472337e-01
1.41996039920798e+01	-4.11788430702610e+00,-9.81809226534551e-01
1.45995919918398e+01	-4.12560278961459e+00,-1.01337394123672e+00
1.49995799915998e+01	-4.13367445904047e+00,-1.04528814066523e+00
1.53995679913598e+01	-4.14211350676462e+00,-1.07756468762474e+00
1.57995559911198e+01	-4.15093494710069e+00,-1.11021670857758e+00
1.61995439908798e+01	-4.16015466562664e+00,-1.14325759789391e+00
1.65995319906398e+01	-4.16978947100417e+00,-1.17670102128706e+00
1.69995199903998e+01	-4.17985715045171e+00,-1.21056091829091e+00
1.73995079901598e+01	-4.19037652913580e+00,-1.24485150361612e+00
1.77994959899198e+01	-4.20136753376496e+00,-1.27958726719853e+00
1.81994839896798e+01	-4.21285126069186e+00,-1.31478297272768e+00
1.85994719894398e+01	-4.22485004885164e+00,-1.35045365441322e+00
1.89994599891998e+01	-4.23738755788822e+00,-1.38661461171426e+00
1.93994479889598e+01	-4.25048885184586e+00,-1.42328140171813e+00
1.97994359887198e+01	-4.26418048882940e+00,-1.46046982881256e+00
2.01994239884798e+01	-4.27849061706483e+00,-1.49819593124622e+00
2.05994119882398e+01	-4.29344907782065e+00,-1.53647596411746e+00
2.09993999879998e+01	-4.30908751568096e+00,-1.57532637826848e+00
2.13993879877598e+01	-4.32543949669199e+00,-1.61476379449085e+00
2.17993759875198e+01	-4.34254063493555e+00,-1.65480497236822e+00
2.21993639872798e+01	-4.36042872811507e+00,-1.69546677299014e+00
2.25993519870398e+01	-4.37914390277101e+00,-1.73676611466805e+00
2.29993399867998e+01	-4.39872876977379e+00,-1.77871992066655e+00
2.33993279865598e+01	-4.41922859077111e+00,-1.82134505783066e+00
2.37993159863198e+01	-4.44069145629273e+00,-1.86465826483880e+00
2.41993039860798e+01	-4.46316847623817e+00,-1.90867606864096e+00
2.45992919858397e+01	-4.48671398348883e+00,-1.95341468744842e+00
2.49992799855997e+01	-4.51138575139442e+00,-1.99888991842323e+00
2.53992679853597e+01	-4.53724522588159e+00,-2.04511700796883e+00
2.57992559851197e+01	-4.56435777291616e+00,-2.09211050224482e+00
2.61992439848797e+01	-4.59279294201690e+00,-2.13988407521452e+00
2.65992319846397e+01	-4.62262474646193e+00,-2.18845033118003e+00
2.69992199843997e+01	-4.65393196074314e+00,-2.23782057836133e+00
2.73992079841597e+01	-4.68679843570265e+00,-2.28800456962886e+00
2.77991959839197e+01	-4.72131343161808e+00,-2.33901020599823e+00
2.81991839836797e+01	-4.75757196928036e+00,-2.39084319793574e+00
2.85991719834397e+01	-4.79567519881538e+00,-2.44350667890012e+00
2.89991599831997e+01	-4.83573078562282e+00,-2.49700076485336e+00
2.93991479829597e+01	-4.87785331232318e+00,-2.55132205270882e+00
2.97991359827197e+01	-4.92216469499399e+00,-2.60646304984380e+00
3.01991239824797e+01	-4.96879461121121e+00,-2.66241152588536e+00
3.05991119822397e+01	-5.01788093645890e+00,-2.71914977698300e+00
3.09990999819997e+01	-5.06957018429140e+00,-2.77665379171440e+00
3.13990879817597e+01	-5.12401794418113e+00,-2.83489230663939e+00
3.17990759815197e+01	-5.18138930920924e+00,-2.89382573833851e+00
3.21990639812797e+01	-5.24185928359441e+00,-2.95340497757094e+00
3.25990519810397e+01	-5.30561315743541e+00,-3.01357002999814e+00
3.29990399807997e+01	-5.37284683288687e+00,-3.07424848679633e+00
3.33990279805597e+01	-5.44376708220409e+00,-3.13535380749620e+00
3.37990159803197e+01	-5.51859171358452e+00,-3.19678339663930e+00
3.41990039800797e+01	-5.59754961539499e+00,-3.25841645545976e+00
3.45989919798396e+01	-5.68088064309646e+00,-3.32011158995975e+00
3.49989799795996e+01	-5.76883530585660e+00,-3.38170415767279e+00
3.53989679793596e+01	-5.86167420137972e+00,-3.44300333738669e+00
3.57989559791196e+01	-5.95966713781326e+00,-3.50378890949082e+00
3.61989439788796e+01	-6.06309187068465e+00,-3.56380773987141e+00
3.65989319786396e+01	-6.17223237072423e+00,-3.62276996795498e+00
3.69989199783996e+01	-6.28737652528817e+00,-3.68034491025830e+00
3.73989079781596e+01	-6.40881316221219e+00,-3.73615670542371e+00
3.77988959779196e+01	-6.53682827081632e+00,-3.78977974609633e+00
3.81988839776796e+01	-6.67170028124659e+00,-3.84073396812463e+00
3.85988719774396e+01	-6.81369425156444e+00,-3.88848009948255e+00
3.89988599771996e+01	-6.96305480364408e+00,-3.93241501104312e+00
3.93988479769596e+01	-7.11999764627341e+00,-3.97186735976082e+00
3.97988359767196e+01	-7.28469952983684e+00,-4.00609377249859e+00
4.01988239764796e+01	-7.45728649533793e+00,-4.03427588562911e+00
4.05988119762395e+01	-7.63782031585525e+00,-4.05551863067472e+00
4.09987999759995e+01	-7.82628308611675e+00,-4.06885023724904e+00
4.13987879757595e+01	-8.02256000152502e+00,-4.07322450711194e+00
4.17987759755195e+01	-8.22642048748908e+00,-4.06752599038110e+00
4.21987639752795e+01	-8.43749799835305e+00,-4.05057875685983e+00
4.25987519750395e+01	-8.65526900559639e+00,-4.02115948846382e+00
4.29987399747995e+01	-8.87903193669093e+00,-3.97801560560662e+00
4.33987279745595e+01	-9.10788710266836e+00,-3.91988906073266e+00
4.37987159743195e+01	-9.34071894962961e+00,-3.84554626387985e+00
4.41987039740795e+01	-9.57618226235385e+00,-3.75381432719068e+00
4.45986919738395e+01	-9.81269420025880e+00,-3.64362341196202e+00
4.49986799735995e+01	-1.00484342088882e+01,-3.51405442846768e+00
4.53986679733595e+01	-1.02813538664272e+01,-3.36439068850466e+00
4.57986559731195e+01	-1.05091985341743e+01,-3.19417138086953e+00
4.61986439728795e+01	-1.07295422295428e+01,-3.00324399721637e+00
4.65986319726394e+01	-1.09398363984704e+01,-2.79181217567693e+00
4.69986199723994e+01	-1.11374722364949e+01,-2.56047497056682e+00
4.73986079721594e+01	-1.13198549504517e+01,-2.31025342429921e+00
4.77985959719194e+01	-1.14844869801019e+01,-2.04260062224137e+00
4.81985839716794e+01	-1.16290558789912e+01,-1.75939221825473e+00
4.85985719714394e+01	-1.17515214887999e+01,-1.46289572193245e+00
4.89985599711994e+01	-1.18501964340117e+01,-1.15571854255689e+00
4.93985479709594e+01	-1.19238139738016e+01,-8.40736704708251e-01
4.97985359707194e+01	-1.19715779507241e+01,-5.21008034684711e-01
5.01985239704794e+01	-1.19931909329678e+01,-1.99675190450861e-01
5.05985119702394e+01	-1.19888585030092e+01,1.20135072550271e-01
5.09984999699994e+01	-1.19592697513686e+01,4.35409700609859e-01
5.13984879697594e+01	-1.19055560952832e+01,7.43337952344505e-01
5.17984759695194e+01	-1.18292322778066e+01,1.04138567737911e+00
5.21984639692794e+01	-1.17321246010523e+01,1.32735170340367e+00
5.25984519690393e+01	-1.16162920001855e+01,1.59940457739039e+00
5.29984399687993e+01	-1.14839454777573e+01,1.85609967690934e+00
5.33984279685593e+01	-1.13373707931679e+01,2.09637822681552e+00
5.37984159683193e+01	-1.11788583039784e+01,2.31955088274191e+00
5.41984039680793e+01	-1.10106426711770e+01,2.52526921700248e+00
5.45983919678393e+01	-1.08348539422546e+01,2.71348868110533e+00
5.49983799675993e+01	-1.06534804486790e+01,2.88442649315936e+00
5.53983679673593e+01	-1.04683430833317e+01,3.03851750854344e+00
5.57983559671193e+01	-1.02810798954920e+01,3.17637058504168e+00
5.61983439668793e+01	-1.00931395532298e+01,3.29872734496520e+00
5.65983319666393e+01	-9.90578204577695e+00,3.40642464136018e+00
5.69983199663993e+01	-9.72008498737801e+00,3.50036150377682e+00
5.73983079661593e+01	-9.53695399113157e+00,3.58147089904782e+00
5.77982959659193e+01	-9.35713576163652e+00,3.65069630348501e+00
5.81982839656793e+01	-9.18123277159451e+00,3.70897284113112e+00
5.85982719654392e+01	-9.00971861171384e+00,3.75721258647109e+00
5.89982599651992e+01	-8.84295331603393e+00,3.79629354376440e+00
5.93982479649592e+01	-8.68119815452460e+00,3.82705178257597e+00
5.97982359647192e+01	-8.52462954588591e+00,3.85027621499220e+00
6.01982239644792e+01	-8.37335187455786e+00,3.86670553144830e+00
6.05982119642392e+01	-8.22740909852253e+00,3.87702685868695e+00
6.09981999639992e+01	-8.08679511163538e+00,3.88187575728009e+00
6.13981879637592e+01	-7.95146287977771e+00,3.88183723179254e+00
6.17981759635192e+01	-7.82133240804172e+00,3.87744748032799e+00
6.21981639632792e+01	-7.69629762017001e+00,3.86919615960397e+00
6.25981519630392e+01	-7.57623224487283e+00,3.85752898566131e+00
6.29981399627992e+01	-7.46099480922799e+00,3.84285052838640e+00
6.33981279625592e+01	-7.35043283939995e+00,3.82552709027893e+00
6.37981159623192e+01	-7.24438636519082e+00,3.80588958670800e+00
6.41981039620792e+01	-7.14269081883139e+00,3.78423636680951e+00
6.45980919618392e+01	-7.04517941096102e+00,3.76083593180334e+00
6.49980799615992e+01	-6.95168505867209e+00,3.73592952147207e+00
6.53980679613592e+01	-6.86204193232805e+00,3.70973355043556e+00
6.57980559611192e+01	-6.77608667994970e+00,3.68244188421225e+00
6.61980439608792e+01	-6.69365938052202e+00,3.65422795135214e+00
6.65980319606392e+01	-6.61460427072796e+00,3.62524669256407e+00
6.69980199603992e+01	-6.53877028342471e+00,3.59563635108209e+00
6.73980079601592e+01	-6.46601143065278e+00,3.56552011080970e+00
6.77979959599192e+01	-6.39618705909175e+00,3.53500759027674e+00
6.81979839596792e+01	-6.32916200160957e+00,3.50419620133305e+00
6.85979719594392e+01	-6.26480664484697e+00,3.47317238193533e+00
6.89979599591992e+01	-6.20299692958167e+00,3.44201271247976e+00
6.93979479589592e+01	-6.14361429787315e+00,3.41078492498655e+00
6.97979359587192e+01	-6.08654559864582e+00,3.37954881412743e+00
7.01979239584792e+01	-6.03168296137561e+00,3.34835705865859e+00
7.05979119582392e+01	-5.97892364585704e+00,3.31725596132353e+00
7.09978999579992e+01	-5.92816987460255e+00,3.28628611475361e+00
7.13978879577592e+01	-5.87932865322733e+00,3.25548300034336e+00
7.17978759575192e+01	-5.83231158316675e+00,3.22487752652927e+00
7.21978639572792e+01	-5.78703467023280e+00,3.19449651236718e+00
7.25978519570392e+01	-5.74341813181489e+00,3.16436312179229e+00
7.29978399567992e+01	-5.70138620494754e+00,3.13449725346295e+00
7.33978279565592e+01	-5.66086695698508e+00,3.10491589063720e+00
7.37978159563192e+01	-5.62179210022475e+00,3.07563341511115e+00
7.41978039560792e+01	-5.58409681149179e+00,3.04666188886102e+00
7.45977919558392e+01	-5.54771955743185e+00,3.01801130667508e+00
7.49977799555992e+01	-5.51260192603679e+00,2.98968982273684e+00
7.53977679553592e+01	-5.47868846475244e+00,2.96170395382520e+00
7.57977559551192e+01	-5.44592652537386e+00,2.93405876152860e+00
7.61977439548792e+01	-5.41426611581871e+00,2.90675801562717e+00
7.65977319546392e+01	-5.38365975877895e+00,2.87980434057722e+00
7.69977199543992e+01	-5.35406235717925e+00,2.85319934683437e+00
7.73977079541592e+01	-5.32543106631581e+00,2.82694374857293e+00
7.77976959539192e+01	-5.29772517250698e+00,2.80103746919910e+00
7.81976839536792e+01	-5.27090597805638e+00,2.77547973591078e+00
7.85976719534392e+01	-5.24493669230653e+00,2.75026916442785e+00
7.89976599531992e+01	-5.21978232854635e+00,2.72540383490021e+00
7.93976479529592e+01	-5.19540960652650e+00,2.70088135989697e+00
7.97976359527192e+01	-5.17178686033153e+00,2.67669894528655e+00
8.01976239524792e+01	-5.14888395135737e+00,2.65285344473414e+00
8.05976119522392e+01	-5.12667218614416e+00,2.62934140846757e+00
8.09975999519992e+01	-5.10512423881878e+00,2.60615912689603e+00
8.13975879517592e+01	-5.08421407790714e+00,2.58330266960540e+00
8.17975759515192e+01	-5.06391689728371e+00,2.56076792020060e+00
8.21975639512792e+01	-5.04420905103328e+00,2.53855060741682e+00
8.25975519510392e+01	-5.02506799200941e+00,2.51664633287840e+00
8.29975399507992e+01	-5.00647221388226e+00,2.49505059584549e+00
8.33975279505592e+01	-4.98840119647843e+00,2.47375881525379e+00
8.37975159503192e+01	-4.97083535422464e+00,2.45276634932184e+00
8.41975039500792e+01	-4.95375598751611e+00,2.43206851297218e+00
8.45974919498392e+01	-4.93714523684019e+00,2.41166059328810e+00
8.49974799495992e+01	-4.92098603949442e+00,2.39153786320491e+00
8.53974679493592e+01	-4.90526208874690e+00,2.37169559361497e+00
8.57974559491192e+01	-4.88995779529559e+00,2.35212906404739e+00
8.61974439488792e+01	-4.87505825089088e+00,2.33283357206737e+00
8.65974319486392e+01	-4.86054919399381e+00,2.31380444152549e+00
8.69974199483992e+01	-4.84641697734950e+00,2.29503702977427e+00
8.73974079481592e+01	-4.83264853736267e+00,2.27652673395765e+00
8.77973959479192e+01	-4.81923136516858e+00,2.25826899646848e+00
8.81973839476792e+01	-4.80615347929915e+00,2.24025930965959e+00
8.85973719474392e+01	-4.79340339985013e+00,2.22249321988568e+00
8.89973599471992e+01	-4.78097012406078e+00,2.20496633094542e+00
8.93973479469592e+01	-4.76884310322287e+00,2.18767430698637e+00
8.97973359467192e+01	-4.75701222084085e+00,2.17061287492922e+00
9.01973239464792e+01	-4.74546777196996e+00,2.15377782646202e+00
9.05973119462392e+01	-4.73420044366333e+00,2.13716501965033e+00
9.09972999459992e+01	-4.72320129646327e+00,2.12077038020453e+00
9.13972879457592e+01	-4.71246174687637e+00,2.10458990244145e+00
9.17972759455192e+01	-4.70197355077508e+00,2.08861964997397e+00
9.21972639452792e+01	-4.69172878767240e+00,2.07285575615861e+00
9.25972519450392e+01	-4.68171984581954e+00,2.05729442432858e+00
9.29972399447992e+01	-4.67193940807908e+00,2.04193192783660e+00
9.33972279445592e+01	-4.66238043852973e+00,2.02676460992972e+00
9.37972159443192e+01	-4.65303616976071e+00,2.01178888347600e+00
9.41972039440792e+01	-4.64390009081693e+00,1.99700123056102e+00
9.45971919438392e+01	-4.63496593575817e+00,1.98239820197030e+00
9.49971799435992e+01	-4.62622767279778e+00,1.96797641657211e+00
9.53971679433592e+01	-4.61767949398852e+00,1.95373256061393e+00
9.57971559431192e+01	-4.60931580542506e+00,1.93966338694406e+00
9.61971439428792e+01	-4.60113121793450e+00,1.92576571416910e+00
9.65971319426392e+01	-4.59312053822808e+00,1.91203642575665e+00
9.69971199423992e+01	-4.58527876048866e+00,1.89847246909195e+00
9.73971079421592e+01	-4.57760105837023e+00,1.88507085449581e+00
9.77970959419192e+01	-4.57008277738700e+00,1.87182865421087e+00
9.81970839416792e+01	-4.56271942767111e+00,1.85874300136227e+00
9.85970719414392e+01	-4.55550667707888e+00,1.84581108889814e+00
9.89970599411992e+01	-4.54844034462725e+00,1.83303016851480e+00
9.93970479409592e+01	-4.54151639424253e+00,1.82039754957119e+00
9.97970359407192e+01	-4.53473092880499e+00,1.80791059799612e+00
1.00197023940479e+02	-4.52808018447383e+00,1.79556673519206e+00
1.00597011940239e+02	-4.52156052527752e+00,1.78336343693834e+00
1.00996999939999e+02	-4.51516843795588e+00,1.77129823229664e+00
1.01396987939759e+02	-4.50890052704080e+00,1.75936870252093e+00
1.01796975939519e+02	-4.50275351016308e+00,1.74757247997419e+00
1.02196963939279e+02	-4.49672421357401e+00,1.73590724705359e+00
1.02596951939039e+02	-4.49080956787052e+00,1.72437073512586e+00
1.02996939938799e+02	-4.48500660391362e+00,1.71296072347410e+00
1.03396927938559e+02	-4.47931244893032e+00,1.70167503825744e+00
1.03796915938319e+02	-4.47372432278978e+00,1.69051155148435e+00
1.04196903938079e+02	-4.46823953444506e+00,1.67946818000073e+00
1.04596891937839e+02	-4.46285547853192e+00,1.66854288449336e+00
1.04996879937599e+02	-4.45756963211737e+00,1.65773366850932e+00
1.05396867937359e+02	-4.45237955159006e+00,1.64703857749207e+00
1.05796855937119e+02	-4.44728286968594e+00,1.63645569783441e+00
1.06196843936879e+02	-4.44227729264234e+00,1.62598315594874e+00
1.06596831936639e+02	-4.43736059747444e+00,1.61561911735483e+00
1.06996819936399e+02	-4.43253062936799e+00,1.60536178578533e+00
1.07396807936159e+02	-4.42778529918295e+00,1.59520940230902e+00
1.07796795935919e+02	-4.42312258106244e+00,1.58516024447198e+00
1.08196783935679e+02	-4.41854051014233e+00,1.57521262545656e+00
1.08596771935439e+02	-4.41403718035644e+00,1.56536489325822e+00
1.08996759935199e+02	-4.40961074233299e+00,1.55561542988006e+00
1.09396747934959e+02	-4.40525940137797e+00,1.54596265054499e+00
1.09796735934719e+02	-4.40098141554139e+00,1.53640500292540e+00
1.10196723934479e+02	-4.39677509376265e+00,1.52694096639004e+00
1.10596711934239e+02	-4.39263879409121e+00,1.51756905126813e+00
1.10996699933999e+02	-4.38857092197929e+00,1.50828779813023e+00
1.11396687933759e+02	-4.38456992864316e+00,1.49909577708586e+00
1.11796675933519e+02	-4.38063430949009e+00,1.48999158709748e+00
1.12196663933279e+02	-4.37676260260775e+00,1.48097385531063e+00
1.12596651933039e+02	-4.37295338731348e+00,1.47204123639993e+00
1.12996639932799e+02	-4.36920528276063e+00,1.46319241193073e+00
1.13396627932559e+02	-4.36551694659946e+00,1.45442608973598e+00
1.13796615932319e+02	-4.36188707369023e+00,1.44574100330825e+00
1.14196603932079e+02	-4.35831439486605e+00,1.43713591120636e+00
1.14596591931839e+02	-4.35479767574352e+00,1.42860959647653e+00
1.14996579931599e+02	-4.35133571557886e+00,1.42016086608757e+00
1.15396567931359e+02	-4.34792734616772e+00,1.41178855038004e+00
1.15796555931119e+02	-4.34457143078668e+00,1.40349150252881e+00
1.16196543930879e+02	-4.34126686317475e+00,1.39526859801895e+00
1.16596531930639e+02	-4.33801256655303e+00,1.38711873413449e+00
1.16996519930399e+02	-4.33480749268101e+00,1.37904082945992e+00
1.17396507930159e+02	-4.33165062094801e+00,1.37103382339390e+00
1.17796495929919e+02	-4.32854095749805e+00,1.36309667567520e+00
1.18196483929679e+02	-4.32547753438703e+00,1.35522836592032e+00
1.18596471929439e+02	-4.32245940877071e+00,1.34742789317258e+00
1.18996459929199e+02	-4.31948566212224e+00,1.33969427546254e+00
1.19396447928959e+02	-4.31655539947803e+00,1.33202654937925e+00
1.19796435928719e+02	-4.31366774871079e+00,1.32442376965228e+00
1.20196423928479e+02	-4.31082185982868e+00,1.31688500874404e+00
1.20596411928239e+02	-4.30801690429941e+00,1.30940935645239e+00
1.20996399927999e+02	-4.30525207439837e+00,1.30199591952305e+00
1.21396387927759e+02	-4.30252658257976e+00,1.29464382127167e+00
1.21796375927519e+02	-4.29983966086984e+00,1.28735220121536e+00
1.22196363927279e+02	-4.29719056028144e+00,1.28012021471331e+00
1.22596351927039e+02	-4.29457855024873e+00,1.27294703261640e+00
1.22996339926799e+02	-4.29200291808174e+00,1.26583184092546e+00
1.23396327926559e+02	-4.28946296843949e+00,1.25877384045805e+00
1.23796315926319e+02	-4.28695802282140e+00,1.25177224652345e+00
1.24196303926079e+02	-4.28448741907583e+00,1.24482628860575e+00
1.24596291925839e+02	-4.28205051092552e+00,1.23793521005471e+00
