Frequenz Impedanz Phase
1.0000000000e+01 9.9996644520e+01 -0.3599885478
1.1201840368e+02 9.9581820161e+01 -4.0166524737
2.1403680736e+02 9.8500522736e+01 -7.5952326028
3.1605521104e+02 9.6822263671e+01 -11.0314926645
4.1807361472e+02 9.4646689557e+01 -14.2726961647
5.2009201840e+02 9.2088898462e+01 -17.2802347294
6.2211042208e+02 8.9265413014e+01 -20.0300562310
7.2412882577e+02 8.6283441448e+01 -22.5113515829
8.2614722945e+02 8.3234407610e+01 -24.7242034355
9.2816563313e+02 8.0191390550e+01 -26.6768694027
1.0301840368e+03 7.7209424763e+01 -28.3831874962
1.1322024405e+03 7.4327496731e+01 -29.8603745782
1.2342208442e+03 7.1571284494e+01 -31.1273131464
1.3362392478e+03 6.8955999530e+01 -32.2033102929
1.4382576515e+03 6.6488972521e+01 -33.1072576293
1.5402760552e+03 6.4171828369e+01 -33.8571042874
1.6422944589e+03 6.2002221050e+01 -34.4695596825
1.7443128626e+03 5.9975164483e+01 -34.9599564647
1.8463312663e+03 5.8084022553e+01 -35.3422198748
1.9483496699e+03 5.6321226403e+01 -35.6289041119
2.0503680736e+03 5.4678781346e+01 -35.8312680355
2.1523864773e+03 5.3148615786e+01 -35.9593714406
2.2544048810e+03 5.1722813970e+01 -36.0221796263
2.3564232847e+03 5.0393764828e+01 -36.0276685322
2.4584416883e+03 4.9154251167e+01 -35.9829258236
2.5604600920e+03 4.7997497202e+01 -35.8942453791
2.6624784957e+03 4.6917187481e+01 -35.7672139735
2.7644968994e+03 4.5907466650e+01 -35.6067897961
2.8665153031e+03 4.4962926768e+01 -35.4173729509
2.9685337067e+03 4.4078586913e+01 -35.2028683778
3.0705521104e+03 4.3249868368e+01 -34.9667417810
3.1725705141e+03 4.2472567664e+01 -34.7120692084
3.2745889178e+03 4.1742828988e+01 -34.4415809302
3.3766073215e+03 4.1057116991e+01 -34.1577002387
3.4786257251e+03 4.0412190596e+01 -33.8625777454
3.5806441288e+03 3.9805078220e+01 -33.5581216998
3.6826625325e+03 3.9233054594e+01 -33.2460248031
3.7846809362e+03 3.8693619275e+01 -32.9277879345
3.8866993399e+03 3.8184476850e+01 -32.6047411620
3.9887177435e+03 3.7703518792e+01 -32.2780623631
4.0907361472e+03 3.7248806879e+01 -31.9487937431
4.1927545509e+03 3.6818558094e+01 -31.6178565003
4.2947729546e+03 3.6411130887e+01 -31.2860638593
4.3967913583e+03 3.6025012705e+01 -30.9541326634
4.4988097620e+03 3.5658808670e+01 -30.6226936955
4.6008281656e+03 3.5311231317e+01 -30.2923008735
4.7028465693e+03 3.4981091288e+01 -29.9634394508
4.8048649730e+03 3.4667288892e+01 -29.6365333345
4.9068833767e+03 3.4368806457e+01 -29.3119516208
5.0089017804e+03 3.4084701392e+01 -28.9900144359
5.1109201840e+03 3.3814099885e+01 -28.6709981587
5.2129385877e+03 3.3556191190e+01 -28.3551400935
5.3149569914e+03 3.3310222434e+01 -28.0426426539
5.4169753951e+03 3.3075493895e+01 -27.7336771095
5.5189937988e+03 3.2851354707e+01 -27.4283869425
5.6210122024e+03 3.2637198954e+01 -27.1268908575
5.7230306061e+03 3.2432462107e+01 -26.8292854797
5.8250490098e+03 3.2236617777e+01 -26.5356477751
5.9270674135e+03 3.2049174753e+01 -26.2460372216
6.0290858172e+03 3.1869674299e+01 -25.9604977576
6.1311042208e+03 3.1697687677e+01 -25.6790595308
6.2331226245e+03 3.1532813891e+01 -25.4017404672
6.3351410282e+03 3.1374677612e+01 -25.1285476807
6.4371594319e+03 3.1222927283e+01 -24.8594787372
6.5391778356e+03 3.1077233382e+01 -24.5945227901
6.6411962392e+03 3.0937286820e+01 -24.3336615991
6.7432146429e+03 3.0802797482e+01 -24.0768704448
6.8452330466e+03 3.0673492874e+01 -23.8241189488
6.9472514503e+03 3.0549116884e+01 -23.5753718098
7.0492698540e+03 3.0429428645e+01 -23.3305894638
7.1512882577e+03 3.0314201477e+01 -23.0897286752
7.2533066613e+03 3.0203221924e+01 -22.8527430672
7.3553250650e+03 3.0096288851e+01 -22.6195835963
7.4573434687e+03 2.9993212627e+01 -22.3901989770
7.5593618724e+03 2.9893814354e+01 -22.1645360620
7.6613802761e+03 2.9797925162e+01 -21.9425401811
7.7633986797e+03 2.9705385560e+01 -21.7241554448
7.8654170834e+03 2.9616044825e+01 -21.5093250140
7.9674354871e+03 2.9529760441e+01 -21.2979913409
8.0694538908e+03 2.9446397583e+01 -21.0900963832
8.1714722945e+03 2.9365828631e+01 -20.8855817940
8.2734906981e+03 2.9287932719e+01 -20.6843890902
8.3755091018e+03 2.9212595325e+01 -20.4864598020
8.4775275055e+03 2.9139707874e+01 -20.2917356041
8.5795459092e+03 2.9069167386e+01 -20.1001584316
8.6815643129e+03 2.9000876134e+01 -19.9116705820
8.7835827165e+03 2.8934741333e+01 -19.7262148036
8.8856011202e+03 2.8870674849e+01 -19.5437343734
8.9876195239e+03 2.8808592926e+01 -19.3641731641
9.0896379276e+03 2.8748415931e+01 -19.1874757019
9.1916563313e+03 2.8690068118e+01 -19.0135872162
9.2936747349e+03 2.8633477405e+01 -18.8424536818
9.3956931386e+03 2.8578575170e+01 -18.6740218541
9.4977115423e+03 2.8525296051e+01 -18.5082392990
9.5997299460e+03 2.8473577768e+01 -18.3450544163
9.7017483497e+03 2.8423360955e+01 -18.1844164596
9.8037667534e+03 2.8374588995e+01 -18.0262755510
9.9057851570e+03 2.8327207877e+01 -17.8705826924
1.0007803561e+04 2.8281166049e+01 -17.7172897733
1.0109821964e+04 2.8236414294e+01 -17.5663495753
1.0211840368e+04 2.8192905597e+01 -17.4177157744
1.0313858772e+04 2.8150595039e+01 -17.2713429407
1.0415877175e+04 2.8109439681e+01 -17.1271865359
1.0517895579e+04 2.8069398464e+01 -16.9852029091
1.0619913983e+04 2.8030432112e+01 -16.8453492907
1.0721932386e+04 2.7992503039e+01 -16.7075837853
1.0823950790e+04 2.7955575269e+01 -16.5718653632
1.0925969194e+04 2.7919614349e+01 -16.4381538504
1.1027987598e+04 2.7884587277e+01 -16.3064099185
1.1130006001e+04 2.7850462429e+01 -16.1765950730
1.1232024405e+04 2.7817209491e+01 -16.0486716414
1.1334042809e+04 2.7784799397e+01 -15.9226027608
1.1436061212e+04 2.7753204264e+01 -15.7983523643
1.1538079616e+04 2.7722397342e+01 -15.6758851683
1.1640098020e+04 2.7692352954e+01 -15.5551666580
1.1742116423e+04 2.7663046450e+01 -15.4361630739
1.1844134827e+04 2.7634454155e+01 -15.3188413976
1.1946153231e+04 2.7606553324e+01 -15.2031693373
1.2048171634e+04 2.7579322103e+01 -15.0891153135
1.2150190038e+04 2.7552739482e+01 -14.9766484448
1.2252208442e+04 2.7526785261e+01 -14.8657385334
1.2354226845e+04 2.7501440012e+01 -14.7563560510
1.2456245249e+04 2.7476685042e+01 -14.6484721239
1.2558263653e+04 2.7452502364e+01 -14.5420585198
1.2660282056e+04 2.7428874663e+01 -14.4370876330
1.2762300460e+04 2.7405785268e+01 -14.3335324711
1.2864318864e+04 2.7383218123e+01 -14.2313666408
1.2966337267e+04 2.7361157757e+01 -14.1305643349
1.3068355671e+04 2.7339589267e+01 -14.0311003183
1.3170374075e+04 2.7318498284e+01 -13.9329499158
1.3272392478e+04 2.7297870957e+01 -13.8360889980
1.3374410882e+04 2.7277693929e+01 -13.7404939699
1.3476429286e+04 2.7257954315e+01 -13.6461417572
1.3578447690e+04 2.7238639683e+01 -13.5530097950
1.3680466093e+04 2.7219738038e+01 -13.4610760152
1.3782484497e+04 2.7201237798e+01 -13.3703188352
1.3884502901e+04 2.7183127782e+01 -13.2807171457
1.3986521304e+04 2.7165397193e+01 -13.1922503001
1.4088539708e+04 2.7148035600e+01 -13.1048981031
1.4190558112e+04 2.7131032926e+01 -13.0186407999
1.4292576515e+04 2.7114379432e+01 -12.9334590656
1.4394594919e+04 2.7098065706e+01 -12.8493339951
1.4496613323e+04 2.7082082645e+01 -12.7662470925
1.4598631726e+04 2.7066421449e+01 -12.6841802618
1.4700650130e+04 2.7051073607e+01 -12.6031157967
1.4802668534e+04 2.7036030883e+01 -12.5230363718
1.4904686937e+04 2.7021285308e+01 -12.4439250326
1.5006705341e+04 2.7006829170e+01 -12.3657651875
1.5108723745e+04 2.6992655004e+01 -12.2885405981
1.5210742148e+04 2.6978755583e+01 -12.2122353714
1.5312760552e+04 2.6965123905e+01 -12.1368339508
1.5414778956e+04 2.6951753192e+01 -12.0623211086
1.5516797359e+04 2.6938636875e+01 -11.9886819376
1.5618815763e+04 2.6925768589e+01 -11.9159018439
1.5720834167e+04 2.6913142167e+01 -11.8439665385
1.5822852571e+04 2.6900751629e+01 -11.7728620308
1.5924870974e+04 2.6888591179e+01 -11.7025746212
1.6026889378e+04 2.6876655196e+01 -11.6330908938
1.6128907782e+04 2.6864938229e+01 -11.5643977099
1.6230926185e+04 2.6853434989e+01 -11.4964822013
1.6332944589e+04 2.6842140345e+01 -11.4293317640
1.6434962993e+04 2.6831049320e+01 -11.3629340515
1.6536981396e+04 2.6820157081e+01 -11.2972769691
1.6638999800e+04 2.6809458937e+01 -11.2323486677
1.6741018204e+04 2.6798950336e+01 -11.1681375380
1.6843036607e+04 2.6788626855e+01 -11.1046322048
1.6945055011e+04 2.6778484199e+01 -11.0418215216
1.7047073415e+04 2.6768518198e+01 -10.9796945650
1.7149091818e+04 2.6758724798e+01 -10.9182406299
1.7251110222e+04 2.6749100063e+01 -10.8574492236
1.7353128626e+04 2.6739640164e+01 -10.7973100619
1.7455147029e+04 2.6730341382e+01 -10.7378130630
1.7557165433e+04 2.6721200103e+01 -10.6789483440
1.7659183837e+04 2.6712212809e+01 -10.6207062154
1.7761202240e+04 2.6703376083e+01 -10.5630771769
1.7863220644e+04 2.6694686599e+01 -10.5060519134
1.7965239048e+04 2.6686141124e+01 -10.4496212900
1.8067257451e+04 2.6677736511e+01 -10.3937763486
1.8169275855e+04 2.6669469699e+01 -10.3385083033
1.8271294259e+04 2.6661337709e+01 -10.2838085368
1.8373312663e+04 2.6653337641e+01 -10.2296685963
1.8475331066e+04 2.6645466674e+01 -10.1760801902
1.8577349470e+04 2.6637722059e+01 -10.1230351837
1.8679367874e+04 2.6630101121e+01 -10.0705255962
1.8781386277e+04 2.6622601255e+01 -10.0185435971
1.8883404681e+04 2.6615219923e+01 -9.9670815026
1.8985423085e+04 2.6607954654e+01 -9.9161317726
1.9087441488e+04 2.6600803040e+01 -9.8656870074
1.9189459892e+04 2.6593762735e+01 -9.8157399445
1.9291478296e+04 2.6586831453e+01 -9.7662834557
1.9393496699e+04 2.6580006966e+01 -9.7173105440
1.9495515103e+04 2.6573287101e+01 -9.6688143406
1.9597533507e+04 2.6566669743e+01 -9.6207881024
1.9699551910e+04 2.6560152826e+01 -9.5732252092
1.9801570314e+04 2.6553734338e+01 -9.5261191606
1.9903588718e+04 2.6547412318e+01 -9.4794635738
2.0005607121e+04 2.6541184849e+01 -9.4332521811
2.0107625525e+04 2.6535050066e+01 -9.3874788270
2.0209643929e+04 2.6529006147e+01 -9.3421374661
2.0311662332e+04 2.6523051314e+01 -9.2972221608
2.0413680736e+04 2.6517183833e+01 -9.2527270787
2.0515699140e+04 2.6511402012e+01 -9.2086464904
2.0617717544e+04 2.6505704199e+01 -9.1649747677
2.0719735947e+04 2.6500088782e+01 -9.1217063809
2.0821754351e+04 2.6494554186e+01 -9.0788358970
2.0923772755e+04 2.6489098875e+01 -9.0363579777
2.1025791158e+04 2.6483721349e+01 -8.9942673774
2.1127809562e+04 2.6478420142e+01 -8.9525589411
2.1229827966e+04 2.6473193823e+01 -8.9112276027
2.1331846369e+04 2.6468040993e+01 -8.8702683828
2.1433864773e+04 2.6462960288e+01 -8.8296763874
2.1535883177e+04 2.6457950373e+01 -8.7894468059
2.1637901580e+04 2.6453009944e+01 -8.7495749093
2.1739919984e+04 2.6448137728e+01 -8.7100560484
2.1841938388e+04 2.6443332480e+01 -8.6708856528
2.1943956791e+04 2.6438592983e+01 -8.6320592284
2.2045975195e+04 2.6433918047e+01 -8.5935723566
2.2147993599e+04 2.6429306511e+01 -8.5554206923
2.2250012002e+04 2.6424757237e+01 -8.5175999626
2.2352030406e+04 2.6420269114e+01 -8.4801059654
2.2454048810e+04 2.6415841054e+01 -8.4429345678
2.2556067213e+04 2.6411471996e+01 -8.4060817050
2.2658085617e+04 2.6407160900e+01 -8.3695433784
2.2760104021e+04 2.6402906748e+01 -8.3333156551
2.2862122424e+04 2.6398708545e+01 -8.2973946657
2.2964140828e+04 2.6394565320e+01 -8.2617766038
2.3066159232e+04 2.6390476119e+01 -8.2264577243
2.3168177636e+04 2.6386440010e+01 -8.1914343423
2.3270196039e+04 2.6382456083e+01 -8.1567028321
2.3372214443e+04 2.6378523443e+01 -8.1222596259
2.3474232847e+04 2.6374641219e+01 -8.0881012124
2.3576251250e+04 2.6370808555e+01 -8.0542241363
2.3678269654e+04 2.6367024613e+01 -8.0206249968
2.3780288058e+04 2.6363288575e+01 -7.9873004467
2.3882306461e+04 2.6359599637e+01 -7.9542471912
2.3984324865e+04 2.6355957015e+01 -7.9214619871
2.4086343269e+04 2.6352359939e+01 -7.8889416418
2.4188361672e+04 2.6348807654e+01 -7.8566830121
2.4290380076e+04 2.6345299424e+01 -7.8246830037
2.4392398480e+04 2.6341834524e+01 -7.7929385697
2.4494416883e+04 2.6338412247e+01 -7.7614467104
2.4596435287e+04 2.6335031899e+01 -7.7302044717
2.4698453691e+04 2.6331692799e+01 -7.6992089448
2.4800472094e+04 2.6328394282e+01 -7.6684572651
2.4902490498e+04 2.6325135694e+01 -7.6379466113
2.5004508902e+04 2.6321916396e+01 -7.6076742050
2.5106527305e+04 2.6318735761e+01 -7.5776373092
2.5208545709e+04 2.6315593173e+01 -7.5478332284
2.5310564113e+04 2.6312488031e+01 -7.5182593072
2.5412582517e+04 2.6309419743e+01 -7.4889129298
2.5514600920e+04 2.6306387730e+01 -7.4597915192
2.5616619324e+04 2.6303391425e+01 -7.4308925366
2.5718637728e+04 2.6300430271e+01 -7.4022134807
2.5820656131e+04 2.6297503721e+01 -7.3737518869
2.5922674535e+04 2.6294611240e+01 -7.3455053268
2.6024692939e+04 2.6291752303e+01 -7.3174714073
2.6126711342e+04 2.6288926395e+01 -7.2896477704
2.6228729746e+04 2.6286133010e+01 -7.2620320920
2.6330748150e+04 2.6283371653e+01 -7.2346220819
2.6432766553e+04 2.6280641837e+01 -7.2074154827
2.6534784957e+04 2.6277943085e+01 -7.1804100695
2.6636803361e+04 2.6275274929e+01 -7.1536036493
2.6738821764e+04 2.6272636909e+01 -7.1269940604
2.6840840168e+04 2.6270028574e+01 -7.1005791717
2.6942858572e+04 2.6267449482e+01 -7.0743568826
2.7044876975e+04 2.6264899199e+01 -7.0483251218
2.7146895379e+04 2.6262377299e+01 -7.0224818475
2.7248913783e+04 2.6259883362e+01 -6.9968250465
2.7350932186e+04 2.6257416978e+01 -6.9713527336
2.7452950590e+04 2.6254977744e+01 -6.9460629516
2.7554968994e+04 2.6252565263e+01 -6.9209537701
2.7656987397e+04 2.6250179147e+01 -6.8960232860
2.7759005801e+04 2.6247819015e+01 -6.8712696219
2.7861024205e+04 2.6245484490e+01 -6.8466909267
2.7963042609e+04 2.6243175206e+01 -6.8222853746
2.8065061012e+04 2.6240890800e+01 -6.7980511646
2.8167079416e+04 2.6238630917e+01 -6.7739865206
2.8269097820e+04 2.6236395208e+01 -6.7500896903
2.8371116223e+04 2.6234183331e+01 -6.7263589454
2.8473134627e+04 2.6231994948e+01 -6.7027925808
2.8575153031e+04 2.6229829730e+01 -6.6793889146
2.8677171434e+04 2.6227687351e+01 -6.6561462872
2.8779189838e+04 2.6225567492e+01 -6.6330630614
2.8881208242e+04 2.6223469839e+01 -6.6101376217
2.8983226645e+04 2.6221394083e+01 -6.5873683744
2.9085245049e+04 2.6219339923e+01 -6.5647537465
2.9187263453e+04 2.6217307059e+01 -6.5422921861
2.9289281856e+04 2.6215295199e+01 -6.5199821618
2.9391300260e+04 2.6213304056e+01 -6.4978221620
2.9493318664e+04 2.6211333346e+01 -6.4758106952
2.9595337067e+04 2.6209382792e+01 -6.4539462893
2.9697355471e+04 2.6207452121e+01 -6.4322274913
2.9799373875e+04 2.6205541063e+01 -6.4106528671
2.9901392278e+04 2.6203649354e+01 -6.3892210013
3.0003410682e+04 2.6201776736e+01 -6.3679304964
3.0105429086e+04 2.6199922951e+01 -6.3467799733
3.0207447489e+04 2.6198087750e+01 -6.3257680703
3.0309465893e+04 2.6196270885e+01 -6.3048934432
3.0411484297e+04 2.6194472113e+01 -6.2841547650
3.0513502701e+04 2.6192691195e+01 -6.2635507254
3.0615521104e+04 2.6190927896e+01 -6.2430800309
3.0717539508e+04 2.6189181986e+01 -6.2227414041
3.0819557912e+04 2.6187453236e+01 -6.2025335840
3.0921576315e+04 2.6185741424e+01 -6.1824553253
3.1023594719e+04 2.6184046328e+01 -6.1625053981
3.1125613123e+04 2.6182367732e+01 -6.1426825881
3.1227631526e+04 2.6180705424e+01 -6.1229856960
3.1329649930e+04 2.6179059194e+01 -6.1034135375
3.1431668334e+04 2.6177428835e+01 -6.0839649428
3.1533686737e+04 2.6175814145e+01 -6.0646387567
3.1635705141e+04 2.6174214924e+01 -6.0454338380
3.1737723545e+04 2.6172630975e+01 -6.0263490597
3.1839741948e+04 2.6171062105e+01 -6.0073833086
3.1941760352e+04 2.6169508123e+01 -5.9885354848
3.2043778756e+04 2.6167968842e+01 -5.9698045021
3.2145797159e+04 2.6166444078e+01 -5.9511892874
3.2247815563e+04 2.6164933648e+01 -5.9326887803
3.2349833967e+04 2.6163437375e+01 -5.9143019335
3.2451852370e+04 2.6161955081e+01 -5.8960277123
3.2553870774e+04 2.6160486595e+01 -5.8778650942
3.2655889178e+04 2.6159031744e+01 -5.8598130690
3.2757907582e+04 2.6157590362e+01 -5.8418706385
3.2859925985e+04 2.6156162283e+01 -5.8240368166
3.2961944389e+04 2.6154747343e+01 -5.8063106287
3.3063962793e+04 2.6153345383e+01 -5.7886911116
3.3165981196e+04 2.6151956244e+01 -5.7711773137
3.3267999600e+04 2.6150579771e+01 -5.7537682944
3.3370018004e+04 2.6149215811e+01 -5.7364631243
3.3472036407e+04 2.6147864212e+01 -5.7192608847
3.3574054811e+04 2.6146524827e+01 -5.7021606677
3.3676073215e+04 2.6145197508e+01 -5.6851615759
3.3778091618e+04 2.6143882112e+01 -5.6682627223
3.3880110022e+04 2.6142578496e+01 -5.6514632303
3.3982128426e+04 2.6141286520e+01 -5.6347622333
3.4084146829e+04 2.6140006046e+01 -5.6181588745
3.4186165233e+04 2.6138736939e+01 -5.6016523072
3.4288183637e+04 2.6137479064e+01 -5.5852416942
3.4390202040e+04 2.6136232290e+01 -5.5689262079
3.4492220444e+04 2.6134996487e+01 -5.5527050302
3.4594238848e+04 2.6133771525e+01 -5.5365773522
3.4696257251e+04 2.6132557281e+01 -5.5205423740
3.4798275655e+04 2.6131353627e+01 -5.5045993050
3.4900294059e+04 2.6130160443e+01 -5.4887473633
3.5002312462e+04 2.6128977608e+01 -5.4729857759
3.5104330866e+04 2.6127805001e+01 -5.4573137783
3.5206349270e+04 2.6126642506e+01 -5.4417306147
3.5308367674e+04 2.6125490007e+01 -5.4262355375
3.5410386077e+04 2.6124347390e+01 -5.4108278076
3.5512404481e+04 2.6123214543e+01 -5.3955066941
3.5614422885e+04 2.6122091354e+01 -5.3802714739
3.5716441288e+04 2.6120977714e+01 -5.3651214322
3.5818459692e+04 2.6119873516e+01 -5.3500558618
3.5920478096e+04 2.6118778653e+01 -5.3350740634
3.6022496499e+04 2.6117693020e+01 -5.3201753452
3.6124514903e+04 2.6116616515e+01 -5.3053590231
3.6226533307e+04 2.6115549035e+01 -5.2906244202
3.6328551710e+04 2.6114490479e+01 -5.2759708673
3.6430570114e+04 2.6113440750e+01 -5.2613977021
3.6532588518e+04 2.6112399748e+01 -5.2469042696
3.6634606921e+04 2.6111367378e+01 -5.2324899218
3.6736625325e+04 2.6110343545e+01 -5.2181540176
3.6838643729e+04 2.6109328155e+01 -5.2038959230
3.6940662132e+04 2.6108321115e+01 -5.1897150105
3.7042680536e+04 2.6107322335e+01 -5.1756106593
3.7144698940e+04 2.6106331724e+01 -5.1615822553
3.7246717343e+04 2.6105349193e+01 -5.1476291910
3.7348735747e+04 2.6104374656e+01 -5.1337508650
3.7450754151e+04 2.6103408026e+01 -5.1199466826
3.7552772555e+04 2.6102449217e+01 -5.1062160550
3.7654790958e+04 2.6101498146e+01 -5.0925583999
3.7756809362e+04 2.6100554729e+01 -5.0789731409
3.7858827766e+04 2.6099618886e+01 -5.0654597076
3.7960846169e+04 2.6098690534e+01 -5.0520175356
3.8062864573e+04 2.6097769596e+01 -5.0386460664
3.8164882977e+04 2.6096855991e+01 -5.0253447472
3.8266901380e+04 2.6095949642e+01 -5.0121130310
3.8368919784e+04 2.6095050473e+01 -4.9989503762
3.8470938188e+04 2.6094158408e+01 -4.9858562472
3.8572956591e+04 2.6093273374e+01 -4.9728301134
3.8674974995e+04 2.6092395295e+01 -4.9598714500
3.8776993399e+04 2.6091524100e+01 -4.9469797373
3.8879011802e+04 2.6090659716e+01 -4.9341544611
3.8981030206e+04 2.6089802074e+01 -4.9213951123
3.9083048610e+04 2.6088951104e+01 -4.9087011869
3.9185067013e+04 2.6088106735e+01 -4.8960721861
3.9287085417e+04 2.6087268901e+01 -4.8835076162
3.9389103821e+04 2.6086437534e+01 -4.8710069883
3.9491122224e+04 2.6085612569e+01 -4.8585698183
3.9593140628e+04 2.6084793938e+01 -4.8461956273
3.9695159032e+04 2.6083981579e+01 -4.8338839410
3.9797177435e+04 2.6083175426e+01 -4.8216342896
3.9899195839e+04 2.6082375417e+01 -4.8094462083
4.0001214243e+04 2.6081581491e+01 -4.7973192368
4.0103232647e+04 2.6080793584e+01 -4.7852529192
4.0205251050e+04 2.6080011638e+01 -4.7732468044
4.0307269454e+04 2.6079235591e+01 -4.7613004453
4.0409287858e+04 2.6078465385e+01 -4.7494133997
4.0511306261e+04 2.6077700962e+01 -4.7375852294
4.0613324665e+04 2.6076942263e+01 -4.7258155005
4.0715343069e+04 2.6076189232e+01 -4.7141037834
4.0817361472e+04 2.6075441813e+01 -4.7024496526
4.0919379876e+04 2.6074699949e+01 -4.6908526869
4.1021398280e+04 2.6073963587e+01 -4.6793124690
4.1123416683e+04 2.6073232671e+01 -4.6678285857
4.1225435087e+04 2.6072507149e+01 -4.6564006277
4.1327453491e+04 2.6071786967e+01 -4.6450281898
4.1429471894e+04 2.6071072074e+01 -4.6337108705
4.1531490298e+04 2.6070362417e+01 -4.6224482723
4.1633508702e+04 2.6069657947e+01 -4.6112400014
4.1735527105e+04 2.6068958611e+01 -4.6000856677
4.1837545509e+04 2.6068264361e+01 -4.5889848849
4.1939563913e+04 2.6067575148e+01 -4.5779372704
