Frequenz Impedanz Phase
1.0000000000e+01 9.9999999495e+05 -0.0057600000
1.1201840368e+02 9.9999936591e+05 -0.0645225732
2.1403680736e+02 9.9999768503e+05 -0.1232850108
3.1605521104e+02 9.9999495231e+05 -0.1820471889
4.1807361472e+02 9.9999116779e+05 -0.2408089842
5.2009201840e+02 9.9998633149e+05 -0.2995702728
6.2211042208e+02 9.9998044346e+05 -0.3583309312
7.2412882577e+02 9.9997350377e+05 -0.4170908359
8.2614722945e+02 9.9996551247e+05 -0.4758498632
9.2816563313e+02 9.9995646963e+05 -0.5346078896
1.0301840368e+03 9.9994637536e+05 -0.5933647915
1.1322024405e+03 9.9993522973e+05 -0.6521204453
1.2342208442e+03 9.9992303287e+05 -0.7108747275
1.3362392478e+03 9.9990978487e+05 -0.7696275147
1.4382576515e+03 9.9989548587e+05 -0.8283786833
1.5402760552e+03 9.9988013601e+05 -0.8871281098
1.6422944589e+03 9.9986373542e+05 -0.9458756708
1.7443128626e+03 9.9984628426e+05 -1.0046212428
1.8463312663e+03 9.9982778271e+05 -1.0633647025
1.9483496699e+03 9.9980823093e+05 -1.1221059265
2.0503680736e+03 9.9978762910e+05 -1.1808447914
2.1523864773e+03 9.9976597743e+05 -1.2395811738
2.2544048810e+03 9.9974327612e+05 -1.2983149506
2.3564232847e+03 9.9971952538e+05 -1.3570459985
2.4584416883e+03 9.9969472543e+05 -1.4157741942
2.5604600920e+03 9.9966887652e+05 -1.4744994145
2.6624784957e+03 9.9964197888e+05 -1.5332215364
2.7644968994e+03 9.9961403277e+05 -1.5919404366
2.8665153031e+03 9.9958503846e+05 -1.6506559921
2.9685337067e+03 9.9955499621e+05 -1.7093680800
3.0705521104e+03 9.9952390632e+05 -1.7680765772
3.1725705141e+03 9.9949176907e+05 -1.8267813607
3.2745889178e+03 9.9945858477e+05 -1.8854823077
3.3766073215e+03 9.9942435373e+05 -1.9441792954
3.4786257251e+03 9.9938907627e+05 -2.0028722009
3.5806441288e+03 9.9935275274e+05 -2.0615609015
3.6826625325e+03 9.9931538346e+05 -2.1202452745
3.7846809362e+03 9.9927696880e+05 -2.1789251974
3.8866993399e+03 9.9923750911e+05 -2.2376005474
3.9887177435e+03 9.9919700477e+05 -2.2962712021
4.0907361472e+03 9.9915545616e+05 -2.3549370391
4.1927545509e+03 9.9911286366e+05 -2.4135979358
4.2947729546e+03 9.9906922770e+05 -2.4722537701
4.3967913583e+03 9.9902454866e+05 -2.5309044195
4.4988097620e+03 9.9897882698e+05 -2.5895497620
4.6008281656e+03 9.9893206308e+05 -2.6481896753
4.7028465693e+03 9.9888425741e+05 -2.7068240374
4.8048649730e+03 9.9883541041e+05 -2.7654527262
4.9068833767e+03 9.9878552255e+05 -2.8240756199
5.0089017804e+03 9.9873459429e+05 -2.8826925966
5.1109201840e+03 9.9868262611e+05 -2.9413035344
5.2129385877e+03 9.9862961850e+05 -2.9999083118
5.3149569914e+03 9.9857557197e+05 -3.0585068069
5.4169753951e+03 9.9852048701e+05 -3.1170988984
5.5189937988e+03 9.9846436414e+05 -3.1756844646
5.6210122024e+03 9.9840720390e+05 -3.2342633843
5.7230306061e+03 9.9834900682e+05 -3.2928355361
5.8250490098e+03 9.9828977344e+05 -3.3514007987
5.9270674135e+03 9.9822950432e+05 -3.4099590510
6.0290858172e+03 9.9816820002e+05 -3.4685101721
6.1311042208e+03 9.9810586113e+05 -3.5270540408
6.2331226245e+03 9.9804248822e+05 -3.5855905364
6.3351410282e+03 9.9797808188e+05 -3.6441195380
6.4371594319e+03 9.9791264273e+05 -3.7026409250
6.5391778356e+03 9.9784617138e+05 -3.7611545768
6.6411962392e+03 9.9777866844e+05 -3.8196603728
6.7432146429e+03 9.9771013455e+05 -3.8781581927
6.8452330466e+03 9.9764057035e+05 -3.9366479162
6.9472514503e+03 9.9756997649e+05 -3.9951294231
7.0492698540e+03 9.9749835362e+05 -4.0536025932
7.1512882577e+03 9.9742570243e+05 -4.1120673066
7.2533066613e+03 9.9735202358e+05 -4.1705234435
7.3553250650e+03 9.9727731777e+05 -4.2289708839
7.4573434687e+03 9.9720158569e+05 -4.2874095083
7.5593618724e+03 9.9712482805e+05 -4.3458391971
7.6613802761e+03 9.9704704556e+05 -4.4042598307
7.7633986797e+03 9.9696823895e+05 -4.4626712900
7.8654170834e+03 9.9688840895e+05 -4.5210734557
7.9674354871e+03 9.9680755632e+05 -4.5794662085
8.0694538908e+03 9.9672568179e+05 -4.6378494297
8.1714722945e+03 9.9664278613e+05 -4.6962230002
8.2734906981e+03 9.9655887011e+05 -4.7545868013
8.3755091018e+03 9.9647393452e+05 -4.8129407144
8.4775275055e+03 9.9638798013e+05 -4.8712846209
8.5795459092e+03 9.9630100776e+05 -4.9296184026
8.6815643129e+03 9.9621301820e+05 -4.9879419410
8.7835827165e+03 9.9612401228e+05 -5.0462551181
8.8856011202e+03 9.9603399082e+05 -5.1045578159
8.9876195239e+03 9.9594295465e+05 -5.1628499164
9.0896379276e+03 9.9585090461e+05 -5.2211313020
9.1916563313e+03 9.9575784157e+05 -5.2794018549
9.2936747349e+03 9.9566376637e+05 -5.3376614578
9.3956931386e+03 9.9556867990e+05 -5.3959099932
9.4977115423e+03 9.9547258303e+05 -5.4541473440
9.5997299460e+03 9.9537547665e+05 -5.5123733930
9.7017483497e+03 9.9527736165e+05 -5.5705880234
9.8037667534e+03 9.9517823894e+05 -5.6287911183
9.9057851570e+03 9.9507810945e+05 -5.6869825611
1.0007803561e+04 9.9497697408e+05 -5.7451622353
1.0109821964e+04 9.9487483377e+05 -5.8033300244
1.0211840368e+04 9.9477168946e+05 -5.8614858123
1.0313858772e+04 9.9466754211e+05 -5.9196294828
1.0415877175e+04 9.9456239267e+05 -5.9777609202
1.0517895579e+04 9.9445624211e+05 -6.0358800085
1.0619913983e+04 9.9434909140e+05 -6.0939866321
1.0721932386e+04 9.9424094153e+05 -6.1520806756
1.0823950790e+04 9.9413179349e+05 -6.2101620236
1.0925969194e+04 9.9402164828e+05 -6.2682305610
1.1027987598e+04 9.9391050692e+05 -6.3262861728
1.1130006001e+04 9.9379837041e+05 -6.3843287441
1.1232024405e+04 9.9368523980e+05 -6.4423581602
1.1334042809e+04 9.9357111611e+05 -6.5003743065
1.1436061212e+04 9.9345600039e+05 -6.5583770688
1.1538079616e+04 9.9333989369e+05 -6.6163663327
1.1640098020e+04 9.9322279707e+05 -6.6743419842
1.1742116423e+04 9.9310471161e+05 -6.7323039095
1.1844134827e+04 9.9298563837e+05 -6.7902519948
1.1946153231e+04 9.9286557845e+05 -6.8481861266
1.2048171634e+04 9.9274453293e+05 -6.9061061914
1.2150190038e+04 9.9262250293e+05 -6.9640120762
1.2252208442e+04 9.9249948955e+05 -7.0219036678
1.2354226845e+04 9.9237549391e+05 -7.0797808533
1.2456245249e+04 9.9225051713e+05 -7.1376435202
1.2558263653e+04 9.9212456036e+05 -7.1954915557
1.2660282056e+04 9.9199762474e+05 -7.2533248477
1.2762300460e+04 9.9186971142e+05 -7.3111432840
1.2864318864e+04 9.9174082155e+05 -7.3689467525
1.2966337267e+04 9.9161095631e+05 -7.4267351414
1.3068355671e+04 9.9148011687e+05 -7.4845083392
1.3170374075e+04 9.9134830441e+05 -7.5422662344
1.3272392478e+04 9.9121552013e+05 -7.6000087156
1.3374410882e+04 9.9108176523e+05 -7.6577356720
1.3476429286e+04 9.9094704091e+05 -7.7154469924
1.3578447690e+04 9.9081134838e+05 -7.7731425664
1.3680466093e+04 9.9067468888e+05 -7.8308222832
1.3782484497e+04 9.9053706363e+05 -7.8884860327
1.3884502901e+04 9.9039847387e+05 -7.9461337046
1.3986521304e+04 9.9025892085e+05 -8.0037651891
1.4088539708e+04 9.9011840582e+05 -8.0613803764
1.4190558112e+04 9.8997693004e+05 -8.1189791568
1.4292576515e+04 9.8983449479e+05 -8.1765614212
1.4394594919e+04 9.8969110133e+05 -8.2341270602
1.4496613323e+04 9.8954675096e+05 -8.2916759649
1.4598631726e+04 9.8940144496e+05 -8.3492080266
1.4700650130e+04 9.8925518464e+05 -8.4067231367
1.4802668534e+04 9.8910797131e+05 -8.4642211868
1.4904686937e+04 9.8895980627e+05 -8.5217020688
1.5006705341e+04 9.8881069085e+05 -8.5791656746
1.5108723745e+04 9.8866062638e+05 -8.6366118965
1.5210742148e+04 9.8850961420e+05 -8.6940406271
1.5312760552e+04 9.8835765565e+05 -8.7514517588
1.5414778956e+04 9.8820475209e+05 -8.8088451846
1.5516797359e+04 9.8805090486e+05 -8.8662207975
1.5618815763e+04 9.8789611534e+05 -8.9235784908
1.5720834167e+04 9.8774038490e+05 -8.9809181580
1.5822852571e+04 9.8758371493e+05 -9.0382396928
1.5924870974e+04 9.8742610680e+05 -9.0955429891
1.6026889378e+04 9.8726756192e+05 -9.1528279410
1.6128907782e+04 9.8710808168e+05 -9.2100944428
1.6230926185e+04 9.8694766750e+05 -9.2673423892
1.6332944589e+04 9.8678632079e+05 -9.3245716748
1.6434962993e+04 9.8662404297e+05 -9.3817821947
1.6536981396e+04 9.8646083547e+05 -9.4389738441
1.6638999800e+04 9.8629669974e+05 -9.4961465183
1.6741018204e+04 9.8613163721e+05 -9.5533001130
1.6843036607e+04 9.8596564933e+05 -9.6104345242
1.6945055011e+04 9.8579873756e+05 -9.6675496478
1.7047073415e+04 9.8563090337e+05 -9.7246453803
1.7149091818e+04 9.8546214822e+05 -9.7817216180
1.7251110222e+04 9.8529247360e+05 -9.8387782579
1.7353128626e+04 9.8512188099e+05 -9.8958151968
1.7455147029e+04 9.8495037187e+05 -9.9528323320
1.7557165433e+04 9.8477794775e+05 -10.0098295610
1.7659183837e+04 9.8460461013e+05 -10.0668067814
1.7761202240e+04 9.8443036052e+05 -10.1237638910
1.7863220644e+04 9.8425520044e+05 -10.1807007882
1.7965239048e+04 9.8407913141e+05 -10.2376173711
1.8067257451e+04 9.8390215495e+05 -10.2945135385
1.8169275855e+04 9.8372427262e+05 -10.3513891891
1.8271294259e+04 9.8354548595e+05 -10.4082442220
1.8373312663e+04 9.8336579648e+05 -10.4650785365
1.8475331066e+04 9.8318520578e+05 -10.5218920322
1.8577349470e+04 9.8300371540e+05 -10.5786846088
1.8679367874e+04 9.8282132692e+05 -10.6354561664
1.8781386277e+04 9.8263804190e+05 -10.6922066051
1.8883404681e+04 9.8245386193e+05 -10.7489358256
1.8985423085e+04 9.8226878860e+05 -10.8056437284
1.9087441488e+04 9.8208282349e+05 -10.8623302147
1.9189459892e+04 9.8189596820e+05 -10.9189951856
1.9291478296e+04 9.8170822434e+05 -10.9756385426
1.9393496699e+04 9.8151959352e+05 -11.0322601873
1.9495515103e+04 9.8133007735e+05 -11.0888600218
1.9597533507e+04 9.8113967747e+05 -11.1454379483
1.9699551910e+04 9.8094839548e+05 -11.2019938691
1.9801570314e+04 9.8075623303e+05 -11.2585276870
1.9903588718e+04 9.8056319177e+05 -11.3150393049
2.0005607121e+04 9.8036927332e+05 -11.3715286260
2.0107625525e+04 9.8017447935e+05 -11.4279955537
2.0209643929e+04 9.7997881151e+05 -11.4844399918
2.0311662332e+04 9.7978227146e+05 -11.5408618441
2.0413680736e+04 9.7958486087e+05 -11.5972610149
2.0515699140e+04 9.7938658142e+05 -11.6536374086
2.0617717544e+04 9.7918743478e+05 -11.7099909299
2.0719735947e+04 9.7898742263e+05 -11.7663214837
2.0821754351e+04 9.7878654668e+05 -11.8226289753
2.0923772755e+04 9.7858480860e+05 -11.8789133102
2.1025791158e+04 9.7838221011e+05 -11.9351743939
2.1127809562e+04 9.7817875291e+05 -11.9914121326
2.1229827966e+04 9.7797443871e+05 -12.0476264325
2.1331846369e+04 9.7776926923e+05 -12.1038172000
2.1433864773e+04 9.7756324619e+05 -12.1599843418
2.1535883177e+04 9.7735637131e+05 -12.2161277652
2.1637901580e+04 9.7714864633e+05 -12.2722473772
2.1739919984e+04 9.7694007299e+05 -12.3283430854
2.1841938388e+04 9.7673065302e+05 -12.3844147976
2.1943956791e+04 9.7652038818e+05 -12.4404624219
2.2045975195e+04 9.7630928022e+05 -12.4964858667
2.2147993599e+04 9.7609733089e+05 -12.5524850404
2.2250012002e+04 9.7588454196e+05 -12.6084598519
2.2352030406e+04 9.7567091519e+05 -12.6644102105
2.2454048810e+04 9.7545645236e+05 -12.7203360253
2.2556067213e+04 9.7524115524e+05 -12.7762372062
2.2658085617e+04 9.7502502561e+05 -12.8321136630
2.2760104021e+04 9.7480806527e+05 -12.8879653058
2.2862122424e+04 9.7459027599e+05 -12.9437920453
2.2964140828e+04 9.7437165959e+05 -12.9995937919
2.3066159232e+04 9.7415221785e+05 -13.0553704569
2.3168177636e+04 9.7393195259e+05 -13.1111219514
2.3270196039e+04 9.7371086560e+05 -13.1668481869
2.3372214443e+04 9.7348895871e+05 -13.2225490753
2.3474232847e+04 9.7326623374e+05 -13.2782245286
2.3576251250e+04 9.7304269250e+05 -13.3338744592
2.3678269654e+04 9.7281833683e+05 -13.3894987798
2.3780288058e+04 9.7259316855e+05 -13.4450974031
2.3882306461e+04 9.7236718950e+05 -13.5006702424
2.3984324865e+04 9.7214040153e+05 -13.5562172111
2.4086343269e+04 9.7191280647e+05 -13.6117382229
2.4188361672e+04 9.7168440617e+05 -13.6672331919
2.4290380076e+04 9.7145520249e+05 -13.7227020322
2.4392398480e+04 9.7122519729e+05 -13.7781446585
2.4494416883e+04 9.7099439242e+05 -13.8335609856
2.4596435287e+04 9.7076278975e+05 -13.8889509285
2.4698453691e+04 9.7053039115e+05 -13.9443144027
2.4800472094e+04 9.7029719849e+05 -13.9996513238
2.4902490498e+04 9.7006321364e+05 -14.0549616077
2.5004508902e+04 9.6982843850e+05 -14.1102451706
2.5106527305e+04 9.6959287494e+05 -14.1655019292
2.5208545709e+04 9.6935652486e+05 -14.2207318000
2.5310564113e+04 9.6911939014e+05 -14.2759347003
2.5412582517e+04 9.6888147268e+05 -14.3311105472
2.5514600920e+04 9.6864277438e+05 -14.3862592586
2.5616619324e+04 9.6840329714e+05 -14.4413807521
2.5718637728e+04 9.6816304287e+05 -14.4964749461
2.5820656131e+04 9.6792201349e+05 -14.5515417591
2.5922674535e+04 9.6768021090e+05 -14.6065811096
2.6024692939e+04 9.6743763702e+05 -14.6615929169
2.6126711342e+04 9.6719429378e+05 -14.7165771002
2.6228729746e+04 9.6695018310e+05 -14.7715335790
2.6330748150e+04 9.6670530690e+05 -14.8264622734
2.6432766553e+04 9.6645966712e+05 -14.8813631035
2.6534784957e+04 9.6621326569e+05 -14.9362359897
2.6636803361e+04 9.6596610455e+05 -14.9910808528
2.6738821764e+04 9.6571818565e+05 -15.0458976138
2.6840840168e+04 9.6546951092e+05 -15.1006861941
2.6942858572e+04 9.6522008231e+05 -15.1554465152
2.7044876975e+04 9.6496990178e+05 -15.2101784990
2.7146895379e+04 9.6471897127e+05 -15.2648820677
2.7248913783e+04 9.6446729275e+05 -15.3195571439
2.7350932186e+04 9.6421486818e+05 -15.3742036501
2.7452950590e+04 9.6396169951e+05 -15.4288215096
2.7554968994e+04 9.6370778871e+05 -15.4834106456
2.7656987397e+04 9.6345313775e+05 -15.5379709817
2.7759005801e+04 9.6319774861e+05 -15.5925024419
2.7861024205e+04 9.6294162326e+05 -15.6470049503
2.7963042609e+04 9.6268476367e+05 -15.7014784315
2.8065061012e+04 9.6242717182e+05 -15.7559228103
2.8167079416e+04 9.6216884970e+05 -15.8103380117
2.8269097820e+04 9.6190979930e+05 -15.8647239610
2.8371116223e+04 9.6165002259e+05 -15.9190805840
2.8473134627e+04 9.6138952158e+05 -15.9734078065
2.8575153031e+04 9.6112829825e+05 -16.0277055549
2.8677171434e+04 9.6086635460e+05 -16.0819737557
2.8779189838e+04 9.6060369262e+05 -16.1362123356
2.8881208242e+04 9.6034031433e+05 -16.1904212218
2.8983226645e+04 9.6007622172e+05 -16.2446003417
2.9085245049e+04 9.5981141679e+05 -16.2987496230
2.9187263453e+04 9.5954590156e+05 -16.3528689937
2.9289281856e+04 9.5927967803e+05 -16.4069583821
2.9391300260e+04 9.5901274822e+05 -16.4610177167
2.9493318664e+04 9.5874511415e+05 -16.5150469265
2.9595337067e+04 9.5847677782e+05 -16.5690459406
2.9697355471e+04 9.5820774126e+05 -16.6230146884
2.9799373875e+04 9.5793800648e+05 -16.6769530997
2.9901392278e+04 9.5766757552e+05 -16.7308611046
3.0003410682e+04 9.5739645040e+05 -16.7847386333
3.0105429086e+04 9.5712463314e+05 -16.8385856167
3.0207447489e+04 9.5685212577e+05 -16.8924019854
3.0309465893e+04 9.5657893033e+05 -16.9461876709
3.0411484297e+04 9.5630504884e+05 -16.9999426046
3.0513502701e+04 9.5603048335e+05 -17.0536667183
3.0615521104e+04 9.5575523589e+05 -17.1073599441
3.0717539508e+04 9.5547930849e+05 -17.1610222144
3.0819557912e+04 9.5520270320e+05 -17.2146534621
3.0921576315e+04 9.5492542207e+05 -17.2682536199
3.1023594719e+04 9.5464746712e+05 -17.3218226213
3.1125613123e+04 9.5436884042e+05 -17.3753603997
3.1227631526e+04 9.5408954400e+05 -17.4288668892
3.1329649930e+04 9.5380957992e+05 -17.4823420238
3.1431668334e+04 9.5352895022e+05 -17.5357857381
3.1533686737e+04 9.5324765696e+05 -17.5891979668
3.1635705141e+04 9.5296570219e+05 -17.6425786449
3.1737723545e+04 9.5268308797e+05 -17.6959277079
3.1839741948e+04 9.5239981634e+05 -17.7492450914
3.1941760352e+04 9.5211588938e+05 -17.8025307313
3.2043778756e+04 9.5183130913e+05 -17.8557845639
3.2145797159e+04 9.5154607765e+05 -17.9090065257
3.2247815563e+04 9.5126019702e+05 -17.9621965536
3.2349833967e+04 9.5097366928e+05 -18.0153545847
3.2451852370e+04 9.5068649651e+05 -18.0684805565
3.2553870774e+04 9.5039868077e+05 -18.1215744066
3.2655889178e+04 9.5011022412e+05 -18.1746360730
3.2757907582e+04 9.4982112864e+05 -18.2276654942
3.2859925985e+04 9.4953139638e+05 -18.2806626087
3.2961944389e+04 9.4924102943e+05 -18.3336273555
3.3063962793e+04 9.4895002984e+05 -18.3865596736
3.3165981196e+04 9.4865839970e+05 -18.4394595027
3.3267999600e+04 9.4836614106e+05 -18.4923267826
3.3370018004e+04 9.4807325602e+05 -18.5451614533
3.3472036407e+04 9.4777974663e+05 -18.5979634551
3.3574054811e+04 9.4748561498e+05 -18.6507327289
3.3676073215e+04 9.4719086314e+05 -18.7034692156
3.3778091618e+04 9.4689549318e+05 -18.7561728565
3.3880110022e+04 9.4659950719e+05 -18.8088435930
3.3982128426e+04 9.4630290724e+05 -18.8614813672
3.4084146829e+04 9.4600569540e+05 -18.9140861212
3.4186165233e+04 9.4570787376e+05 -18.9666577973
3.4288183637e+04 9.4540944440e+05 -19.0191963385
3.4390202040e+04 9.4511040940e+05 -19.0717016876
3.4492220444e+04 9.4481077083e+05 -19.1241737881
3.4594238848e+04 9.4451053079e+05 -19.1766125837
3.4696257251e+04 9.4420969134e+05 -19.2290180181
3.4798275655e+04 9.4390825457e+05 -19.2813900357
3.4900294059e+04 9.4360622257e+05 -19.3337285811
3.5002312462e+04 9.4330359742e+05 -19.3860335989
3.5104330866e+04 9.4300038119e+05 -19.4383050343
3.5206349270e+04 9.4269657598e+05 -19.4905428327
3.5308367674e+04 9.4239218386e+05 -19.5427469398
3.5410386077e+04 9.4208720693e+05 -19.5949173017
3.5512404481e+04 9.4178164726e+05 -19.6470538645
3.5614422885e+04 9.4147550694e+05 -19.6991565749
3.5716441288e+04 9.4116878805e+05 -19.7512253797
3.5818459692e+04 9.4086149267e+05 -19.8032602262
3.5920478096e+04 9.4055362290e+05 -19.8552610617
3.6022496499e+04 9.4024518082e+05 -19.9072278340
3.6124514903e+04 9.3993616850e+05 -19.9591604912
3.6226533307e+04 9.3962658805e+05 -20.0110589816
3.6328551710e+04 9.3931644153e+05 -20.0629232537
3.6430570114e+04 9.3900573103e+05 -20.1147532567
3.6532588518e+04 9.3869445864e+05 -20.1665489396
3.6634606921e+04 9.3838262645e+05 -20.2183102519
3.6736625325e+04 9.3807023653e+05 -20.2700371435
3.6838643729e+04 9.3775729097e+05 -20.3217295644
3.6940662132e+04 9.3744379186e+05 -20.3733874651
3.7042680536e+04 9.3712974127e+05 -20.4250107961
3.7144698940e+04 9.3681514129e+05 -20.4765995085
3.7246717343e+04 9.3649999400e+05 -20.5281535535
3.7348735747e+04 9.3618430149e+05 -20.5796728826
3.7450754151e+04 9.3586806584e+05 -20.6311574476
3.7552772555e+04 9.3555128912e+05 -20.6826072008
3.7654790958e+04 9.3523397342e+05 -20.7340220944
3.7756809362e+04 9.3491612083e+05 -20.7854020812
3.7858827766e+04 9.3459773341e+05 -20.8367471142
3.7960846169e+04 9.3427881325e+05 -20.8880571466
3.8062864573e+04 9.3395936243e+05 -20.9393321320
3.8164882977e+04 9.3363938302e+05 -20.9905720243
3.8266901380e+04 9.3331887711e+05 -21.0417767775
3.8368919784e+04 9.3299784678e+05 -21.0929463462
3.8470938188e+04 9.3267629409e+05 -21.1440806850
3.8572956591e+04 9.3235422112e+05 -21.1951797489
3.8674974995e+04 9.3203162995e+05 -21.2462434933
3.8776993399e+04 9.3170852266e+05 -21.2972718736
3.8879011802e+04 9.3138490131e+05 -21.3482648458
3.8981030206e+04 9.3106076798e+05 -21.3992223659
3.9083048610e+04 9.3073612475e+05 -21.4501443905
3.9185067013e+04 9.3041097367e+05 -21.5010308762
3.9287085417e+04 9.3008531683e+05 -21.5518817800
3.9389103821e+04 9.2975915629e+05 -21.6026970592
3.9491122224e+04 9.2943249412e+05 -21.6534766714
3.9593140628e+04 9.2910533239e+05 -21.7042205744
3.9695159032e+04 9.2877767316e+05 -21.7549287264
3.9797177435e+04 9.2844951849e+05 -21.8056010858
3.9899195839e+04 9.2812087047e+05 -21.8562376112
4.0001214243e+04 9.2779173113e+05 -21.9068382617
4.0103232647e+04 9.2746210256e+05 -21.9574029965
4.0205251050e+04 9.2713198680e+05 -22.0079317751
4.0307269454e+04 9.2680138592e+05 -22.0584245575
4.0409287858e+04 9.2647030197e+05 -22.1088813036
4.0511306261e+04 9.2613873702e+05 -22.1593019740
4.0613324665e+04 9.2580669313e+05 -22.2096865292
4.0715343069e+04 9.2547417233e+05 -22.2600349301
4.0817361472e+04 9.2514117669e+05 -22.3103471382
4.0919379876e+04 9.2480770827e+05 -22.3606231147
4.1021398280e+04 9.2447376910e+05 -22.4108628216
4.1123416683e+04 9.2413936125e+05 -22.4610662208
4.1225435087e+04 9.2380448675e+05 -22.5112332748
4.1327453491e+04 9.2346914766e+05 -22.5613639461
4.1429471894e+04 9.2313334602e+05 -22.6114581976
4.1531490298e+04 9.2279708387e+05 -22.6615159926
4.1633508702e+04 9.2246036326e+05 -22.7115372944
4.1735527105e+04 9.2212318622e+05 -22.7615220667
4.1837545509e+04 9.2178555480e+05 -22.8114702737
