Frequenz Impedanz Phase
1.0000000000e+01 6.2834651826e-01 -90.1824271120
1.1201840368e+02 7.0733284814e+00 -90.0257926385
2.1403680736e+02 1.3695101040e+01 -90.0730900900
3.1605521104e+02 2.0666737296e+01 -90.2156574847
4.1807361472e+02 2.8185400392e+01 -90.5008383317
5.2009201840e+02 3.6487394198e+01 -90.9894022123
6.2211042208e+02 4.5867734525e+01 -91.7590289295
7.2412882577e+02 5.6706018094e+01 -92.9124775081
8.2614722945e+02 6.9499419429e+01 -94.5902953904
9.2816563313e+02 8.4898776855e+01 -96.9900665011
1.0301840368e+03 1.0372609018e+02 -100.3944052714
1.1322024405e+03 1.2689646939e+02 -105.2063922744
1.2342208442e+03 1.5501967518e+02 -111.9734804141
1.3362392478e+03 1.8719084539e+02 -121.3221651841
1.4382576515e+03 2.1865112343e+02 -133.6119590255
1.5402760552e+03 2.3979430794e+02 -148.1934153819
1.6422944589e+03 2.4259413492e+02 -163.0396198126
1.7443128626e+03 2.2936441194e+02 -175.9402222609
1.8463312663e+03 2.0893994788e+02 174.0474013348
1.9483496699e+03 1.8806082040e+02 166.7028748737
2.0503680736e+03 1.6953165672e+02 161.4147557725
2.1523864773e+03 1.5392430731e+02 157.6117320053
2.2544048810e+03 1.4098354933e+02 154.8659377231
2.3564232847e+03 1.3025635391e+02 152.8779092669
2.4584416883e+03 1.2130832596e+02 151.4409679770
2.5604600920e+03 1.1377912122e+02 150.4114452806
2.6624784957e+03 1.0738439215e+02 149.6879253300
2.7644968994e+03 1.0190338790e+02 149.1975197829
2.8665153031e+03 9.7165053772e+01 148.8868866261
2.9685337067e+03 9.3036212219e+01 148.7163140869
3.0705521104e+03 8.9412361383e+01 148.6557691576
3.1725705141e+03 8.6210748921e+01 148.6822138379
3.2745889178e+03 8.3365218621e+01 148.7777502256
3.3766073215e+03 8.0822380604e+01 148.9283161632
3.4786257251e+03 7.8538753601e+01 149.1227527384
3.5806441288e+03 7.6478618111e+01 149.3521271490
3.6826625325e+03 7.4612390466e+01 149.6092337777
3.7846809362e+03 7.2915380667e+01 149.8882215571
3.8866993399e+03 7.1366834965e+01 150.1843121357
3.9887177435e+03 6.9949191423e+01 150.4935842256
4.0907361472e+03 6.8647496123e+01 150.8128068063
4.1927545509e+03 6.7448941580e+01 151.1393088288
4.2947729546e+03 6.6342498890e+01 151.4708764959
4.3967913583e+03 6.5318622394e+01 151.8056715936
4.4988097620e+03 6.4369010847e+01 152.1421660510
4.6008281656e+03 6.3486412987e+01 152.4790891262
4.7028465693e+03 6.2664468226e+01 152.8153844964
4.8048649730e+03 6.1897575329e+01 153.1501751836
4.9068833767e+03 6.1180783532e+01 153.4827347209
5.0089017804e+03 6.0509701778e+01 153.8124633276
5.1109201840e+03 5.9880422664e+01 154.1388681272
5.2129385877e+03 5.9289458396e+01 154.4615466522
5.3149569914e+03 5.8733686610e+01 154.7801730311
5.4169753951e+03 5.8210304331e+01 155.0944863822
5.5189937988e+03 5.7716788691e+01 155.4042810252
5.6210122024e+03 5.7250863271e+01 155.7093982029
5.7230306061e+03 5.6810469154e+01 156.0097190583
5.8250490098e+03 5.6393739944e+01 156.3051586635
5.9270674135e+03 5.5998980130e+01 156.5956609288
6.0290858172e+03 5.5624646278e+01 156.8811942551
6.1311042208e+03 5.5269330647e+01 157.1617478132
6.2331226245e+03 5.4931746856e+01 157.4373283547
6.3351410282e+03 5.4610717319e+01 157.7079574743
6.4371594319e+03 5.4305162196e+01 157.9736692570
6.5391778356e+03 5.4014089657e+01 158.2345082543
6.6411962392e+03 5.3736587267e+01 158.4905277409
6.7432146429e+03 5.3471814367e+01 158.7417882138
6.8452330466e+03 5.3218995298e+01 158.9883560973
6.9472514503e+03 5.2977413373e+01 159.2303026280
7.0492698540e+03 5.2746405503e+01 159.4677028925
7.1512882577e+03 5.2525357392e+01 159.7006349991
7.2533066613e+03 5.2313699235e+01 159.9291793635
7.3553250650e+03 5.2110901855e+01 160.1534180944
7.4573434687e+03 5.1916473235e+01 160.3734344658
7.5593618724e+03 5.1729955393e+01 160.5893124630
7.6613802761e+03 5.1550921563e+01 160.8011363950
7.7633986797e+03 5.1378973646e+01 161.0089905621
7.8654170834e+03 5.1213739908e+01 161.2129589731
7.9674354871e+03 5.1054872889e+01 161.4131251053
8.0694538908e+03 5.0902047506e+01 161.6095717015
8.1714722945e+03 5.0754959332e+01 161.8023805988
8.2734906981e+03 5.0613323023e+01 161.9916325866
8.3755091018e+03 5.0476870889e+01 162.1774072877
8.4775275055e+03 5.0345351589e+01 162.3597830621
8.5795459092e+03 5.0218528936e+01 162.5388369280
8.6815643129e+03 5.0096180803e+01 162.7146444993
8.7835827165e+03 4.9978098129e+01 162.8872799376
8.8856011202e+03 4.9864083992e+01 163.0568159156
8.9876195239e+03 4.9753952774e+01 163.2233235909
9.0896379276e+03 4.9647529384e+01 163.3868725894
9.1916563313e+03 4.9544648541e+01 163.5475309959
9.2936747349e+03 4.9445154122e+01 163.7053653520
9.3956931386e+03 4.9348898554e+01 163.8604406590
9.4977115423e+03 4.9255742256e+01 164.0128203864
9.5997299460e+03 4.9165553120e+01 164.1625664841
9.7017483497e+03 4.9078206035e+01 164.3097393985
9.8037667534e+03 4.8993582444e+01 164.4543980914
9.9057851570e+03 4.8911569934e+01 164.5966000611
1.0007803561e+04 4.8832061858e+01 164.7364013663
1.0109821964e+04 4.8754956977e+01 164.8738566506
1.0211840368e+04 4.8680159138e+01 165.0090191696
1.0313858772e+04 4.8607576965e+01 165.1419408179
1.0415877175e+04 4.8537123579e+01 165.2726721579
1.0517895579e+04 4.8468716332e+01 165.4012624484
1.0619913983e+04 4.8402276561e+01 165.5277596739
1.0721932386e+04 4.8337729360e+01 165.6522105746
1.0823950790e+04 4.8275003363e+01 165.7746606755
1.0925969194e+04 4.8214030550e+01 165.8951543168
1.1027987598e+04 4.8154746051e+01 166.0137346828
1.1130006001e+04 4.8097087983e+01 166.1304438315
1.1232024405e+04 4.8040997276e+01 166.2453227240
1.1334042809e+04 4.7986417525e+01 166.3584112525
1.1436061212e+04 4.7933294848e+01 166.4697482693
1.1538079616e+04 4.7881577748e+01 166.5793716142
1.1640098020e+04 4.7831216988e+01 166.6873181423
1.1742116423e+04 4.7782165473e+01 166.7936237505
1.1844134827e+04 4.7734378141e+01 166.8983234038
1.1946153231e+04 4.7687811854e+01 167.0014511615
1.2048171634e+04 4.7642425303e+01 167.1030402019
1.2150190038e+04 4.7598178915e+01 167.2031228473
1.2252208442e+04 4.7555034764e+01 167.3017305878
1.2354226845e+04 4.7512956494e+01 167.3988941046
1.2456245249e+04 4.7471909236e+01 167.4946432935
1.2558263653e+04 4.7431859538e+01 167.5890072861
1.2660282056e+04 4.7392775297e+01 167.6820144726
1.2762300460e+04 4.7354625692e+01 167.7736925221
1.2864318864e+04 4.7317381126e+01 167.8640684032
1.2966337267e+04 4.7281013164e+01 167.9531684043
1.3068355671e+04 4.7245494482e+01 168.0410181527
1.3170374075e+04 4.7210798814e+01 168.1276426334
1.3272392478e+04 4.7176900901e+01 168.2130662077
1.3374410882e+04 4.7143776451e+01 168.2973126304
1.3476429286e+04 4.7111402087e+01 168.3804050679
1.3578447690e+04 4.7079755312e+01 168.4623661138
1.3680466093e+04 4.7048814466e+01 168.5432178063
1.3782484497e+04 4.7018558690e+01 168.6229816432
1.3884502901e+04 4.6988967892e+01 168.7016785974
1.3986521304e+04 4.6960022710e+01 168.7793291318
1.4088539708e+04 4.6931704485e+01 168.8559532138
1.4190558112e+04 4.6903995226e+01 168.9315703290
1.4292576515e+04 4.6876877584e+01 169.0061994948
1.4394594919e+04 4.6850334823e+01 169.0798592736
1.4496613323e+04 4.6824350798e+01 169.1525677855
1.4598631726e+04 4.6798909925e+01 169.2243427208
1.4700650130e+04 4.6773997160e+01 169.2952013515
1.4802668534e+04 4.6749597978e+01 169.3651605436
1.4904686937e+04 4.6725698351e+01 169.4342367676
1.5006705341e+04 4.6702284724e+01 169.5024461101
1.5108723745e+04 4.6679344002e+01 169.5698042837
1.5210742148e+04 4.6656863527e+01 169.6363266379
1.5312760552e+04 4.6634831064e+01 169.7020281685
1.5414778956e+04 4.6613234779e+01 169.7669235276
1.5516797359e+04 4.6592063229e+01 169.8310270330
1.5618815763e+04 4.6571305343e+01 169.8943526767
1.5720834167e+04 4.6550950409e+01 169.9569141344
1.5822852571e+04 4.6530988059e+01 170.0187247736
1.5924870974e+04 4.6511408259e+01 170.0797976619
1.6026889378e+04 4.6492201290e+01 170.1401455751
1.6128907782e+04 4.6473357743e+01 170.1997810051
1.6230926185e+04 4.6454868502e+01 170.2587161671
1.6332944589e+04 4.6436724737e+01 170.3169630072
1.6434962993e+04 4.6418917891e+01 170.3745332095
1.6536981396e+04 4.6401439670e+01 170.4314382027
1.6638999800e+04 4.6384282033e+01 170.4876891671
1.6741018204e+04 4.6367437186e+01 170.5432970409
1.6843036607e+04 4.6350897568e+01 170.5982725266
1.6945055011e+04 4.6334655848e+01 170.6526260970
1.7047073415e+04 4.6318704910e+01 170.7063680012
1.7149091818e+04 4.6303037853e+01 170.7595082701
1.7251110222e+04 4.6287647978e+01 170.8120567225
1.7353128626e+04 4.6272528783e+01 170.8640229700
1.7455147029e+04 4.6257673954e+01 170.9154164225
1.7557165433e+04 4.6243077363e+01 170.9662462934
1.7659183837e+04 4.6228733057e+01 171.0165216042
1.7761202240e+04 4.6214635252e+01 171.0662511896
1.7863220644e+04 4.6200778333e+01 171.1154437023
1.7965239048e+04 4.6187156840e+01 171.1641076170
1.8067257451e+04 4.6173765469e+01 171.2122512355
1.8169275855e+04 4.6160599064e+01 171.2598826904
1.8271294259e+04 4.6147652613e+01 171.3070099496
1.8373312663e+04 4.6134921242e+01 171.3536408202
1.8475331066e+04 4.6122400213e+01 171.3997829526
1.8577349470e+04 4.6110084916e+01 171.4454438440
1.8679367874e+04 4.6097970867e+01 171.4906308423
1.8781386277e+04 4.6086053705e+01 171.5353511500
1.8883404681e+04 4.6074329185e+01 171.5796118270
1.8985423085e+04 4.6062793176e+01 171.6234197947
1.9087441488e+04 4.6051441657e+01 171.6667818389
1.9189459892e+04 4.6040270716e+01 171.7097046133
1.9291478296e+04 4.6029276540e+01 171.7521946422
1.9393496699e+04 4.6018455420e+01 171.7942583241
1.9495515103e+04 4.6007803742e+01 171.8359019343
1.9597533507e+04 4.5997317985e+01 171.8771316277
1.9699551910e+04 4.5986994722e+01 171.9179534422
1.9801570314e+04 4.5976830611e+01 171.9583733006
1.9903588718e+04 4.5966822397e+01 171.9983970137
2.0005607121e+04 4.5956966907e+01 172.0380302832
2.0107625525e+04 4.5947261049e+01 172.0772787033
2.0209643929e+04 4.5937701810e+01 172.1161477641
2.0311662332e+04 4.5928286249e+01 172.1546428535
2.0413680736e+04 4.5919011502e+01 172.1927692595
2.0515699140e+04 4.5909874775e+01 172.2305321726
2.0617717544e+04 4.5900873341e+01 172.2679366879
2.0719735947e+04 4.5892004543e+01 172.3049878075
2.0821754351e+04 4.5883265787e+01 172.3416904420
2.0923772755e+04 4.5874654543e+01 172.3780494132
2.1025791158e+04 4.5866168341e+01 172.4140694556
2.1127809562e+04 4.5857804773e+01 172.4497552187
2.1229827966e+04 4.5849561485e+01 172.4851112683
2.1331846369e+04 4.5841436183e+01 172.5201420891
2.1433864773e+04 4.5833426625e+01 172.5548520858
2.1535883177e+04 4.5825530623e+01 172.5892455853
2.1637901580e+04 4.5817746041e+01 172.6233268380
2.1739919984e+04 4.5810070790e+01 172.6571000197
2.1841938388e+04 4.5802502835e+01 172.6905692334
2.1943956791e+04 4.5795040183e+01 172.7237385102
2.2045975195e+04 4.5787680890e+01 172.7566118115
2.2147993599e+04 4.5780423056e+01 172.7891930302
2.2250012002e+04 4.5773264824e+01 172.8214859921
2.2352030406e+04 4.5766204379e+01 172.8534944576
2.2454048810e+04 4.5759239949e+01 172.8852221225
2.2556067213e+04 4.5752369801e+01 172.9166726200
2.2658085617e+04 4.5745592239e+01 172.9478495218
2.2760104021e+04 4.5738905608e+01 172.9787563389
2.2862122424e+04 4.5732308287e+01 173.0093965237
2.2964140828e+04 4.5725798695e+01 173.0397734705
2.3066159232e+04 4.5719375281e+01 173.0698905171
2.3168177636e+04 4.5713036531e+01 173.0997509458
2.3270196039e+04 4.5706780964e+01 173.1293579845
2.3372214443e+04 4.5700607130e+01 173.1587148078
2.3474232847e+04 4.5694513612e+01 173.1878245383
2.3576251250e+04 4.5688499022e+01 173.2166902474
2.3678269654e+04 4.5682562003e+01 173.2453149564
2.3780288058e+04 4.5676701227e+01 173.2737016375
2.3882306461e+04 4.5670915394e+01 173.3018532150
2.3984324865e+04 4.5665203231e+01 173.3297725658
2.4086343269e+04 4.5659563493e+01 173.3574625207
2.4188361672e+04 4.5653994960e+01 173.3849258652
2.4290380076e+04 4.5648496440e+01 173.4121653404
2.4392398480e+04 4.5643066762e+01 173.4391836439
2.4494416883e+04 4.5637704783e+01 173.4659834305
2.4596435287e+04 4.5632409381e+01 173.4925673132
2.4698453691e+04 4.5627179459e+01 173.5189378641
2.4800472094e+04 4.5622013942e+01 173.5450976148
2.4902490498e+04 4.5616911777e+01 173.5710490576
2.5004508902e+04 4.5611871931e+01 173.5967946460
2.5106527305e+04 4.5606893393e+01 173.6223367956
2.5208545709e+04 4.5601975174e+01 173.6476778847
2.5310564113e+04 4.5597116303e+01 173.6728202551
2.5412582517e+04 4.5592315829e+01 173.6977662126
2.5514600920e+04 4.5587572819e+01 173.7225180281
2.5616619324e+04 4.5582886361e+01 173.7470779376
2.5718637728e+04 4.5578255557e+01 173.7714481435
2.5820656131e+04 4.5573679532e+01 173.7956308150
2.5922674535e+04 4.5569157424e+01 173.8196280885
2.6024692939e+04 4.5564688389e+01 173.8434420686
2.6126711342e+04 4.5560271600e+01 173.8670748281
2.6228729746e+04 4.5555906246e+01 173.8905284093
2.6330748150e+04 4.5551591531e+01 173.9138048242
2.6432766553e+04 4.5547326675e+01 173.9369060550
2.6534784957e+04 4.5543110913e+01 173.9598340545
2.6636803361e+04 4.5538943494e+01 173.9825907472
2.6738821764e+04 4.5534823681e+01 174.0051780293
2.6840840168e+04 4.5530750753e+01 174.0275977693
2.6942858572e+04 4.5526724000e+01 174.0498518087
2.7044876975e+04 4.5522742728e+01 174.0719419622
2.7146895379e+04 4.5518806253e+01 174.0938700186
2.7248913783e+04 4.5514913907e+01 174.1156377408
2.7350932186e+04 4.5511065031e+01 174.1372468663
2.7452950590e+04 4.5507258982e+01 174.1586991080
2.7554968994e+04 4.5503495126e+01 174.1799961546
2.7656987397e+04 4.5499772841e+01 174.2011396704
2.7759005801e+04 4.5496091518e+01 174.2221312966
2.7861024205e+04 4.5492450559e+01 174.2429726511
2.7963042609e+04 4.5488849374e+01 174.2636653290
2.8065061012e+04 4.5485287386e+01 174.2842109034
2.8167079416e+04 4.5481764030e+01 174.3046109251
2.8269097820e+04 4.5478278748e+01 174.3248669237
2.8371116223e+04 4.5474830993e+01 174.3449804072
2.8473134627e+04 4.5471420229e+01 174.3649528633
2.8575153031e+04 4.5468045929e+01 174.3847857588
2.8677171434e+04 4.5464707574e+01 174.4044805405
2.8779189838e+04 4.5461404656e+01 174.4240386356
2.8881208242e+04 4.5458136675e+01 174.4434614516
2.8983226645e+04 4.5454903140e+01 174.4627503771
2.9085245049e+04 4.5451703569e+01 174.4819067818
2.9187263453e+04 4.5448537487e+01 174.5009320169
2.9289281856e+04 4.5445404429e+01 174.5198274155
2.9391300260e+04 4.5442303937e+01 174.5385942927
2.9493318664e+04 4.5439235561e+01 174.5572339463
2.9595337067e+04 4.5436198860e+01 174.5757476565
2.9697355471e+04 4.5433193398e+01 174.5941366867
2.9799373875e+04 4.5430218749e+01 174.6124022835
2.9901392278e+04 4.5427274493e+01 174.6305456771
3.0003410682e+04 4.5424360218e+01 174.6485680814
3.0105429086e+04 4.5421475517e+01 174.6664706947
3.0207447489e+04 4.5418619992e+01 174.6842546992
3.0309465893e+04 4.5415793251e+01 174.7019212620
3.0411484297e+04 4.5412994908e+01 174.7194715350
3.0513502701e+04 4.5410224584e+01 174.7369066551
3.0615521104e+04 4.5407481906e+01 174.7542277447
3.0717539508e+04 4.5404766507e+01 174.7714359115
3.0819557912e+04 4.5402078028e+01 174.7885322492
3.0921576315e+04 4.5399416113e+01 174.8055178375
3.1023594719e+04 4.5396780413e+01 174.8223937423
3.1125613123e+04 4.5394170586e+01 174.8391610158
3.1227631526e+04 4.5391586294e+01 174.8558206972
3.1329649930e+04 4.5389027205e+01 174.8723738122
3.1431668334e+04 4.5386492991e+01 174.8888213739
3.1533686737e+04 4.5383983333e+01 174.9051643826
3.1635705141e+04 4.5381497913e+01 174.9214038259
3.1737723545e+04 4.5379036421e+01 174.9375406793
3.1839741948e+04 4.5376598550e+01 174.9535759060
3.1941760352e+04 4.5374183999e+01 174.9695104575
3.2043778756e+04 4.5371792471e+01 174.9853452732
3.2145797159e+04 4.5369423675e+01 175.0010812811
3.2247815563e+04 4.5367077324e+01 175.0167193978
3.2349833967e+04 4.5364753135e+01 175.0322605287
3.2451852370e+04 4.5362450829e+01 175.0477055680
3.2553870774e+04 4.5360170133e+01 175.0630553991
3.2655889178e+04 4.5357910777e+01 175.0783108946
3.2757907582e+04 4.5355672496e+01 175.0934729167
3.2859925985e+04 4.5353455029e+01 175.1085423170
3.2961944389e+04 4.5351258118e+01 175.1235199370
3.3063962793e+04 4.5349081510e+01 175.1384066078
3.3165981196e+04 4.5346924955e+01 175.1532031510
3.3267999600e+04 4.5344788208e+01 175.1679103780
3.3370018004e+04 4.5342671027e+01 175.1825290907
3.3472036407e+04 4.5340573175e+01 175.1970600815
3.3574054811e+04 4.5338494415e+01 175.2115041335
3.3676073215e+04 4.5336434518e+01 175.2258620203
3.3778091618e+04 4.5334393256e+01 175.2401345066
3.3880110022e+04 4.5332370405e+01 175.2543223482
3.3982128426e+04 4.5330365744e+01 175.2684262918
3.4084146829e+04 4.5328379055e+01 175.2824470756
3.4186165233e+04 4.5326410124e+01 175.2963854292
3.4288183637e+04 4.5324458741e+01 175.3102420735
3.4390202040e+04 4.5322524698e+01 175.3240177214
3.4492220444e+04 4.5320607789e+01 175.3377130773
3.4594238848e+04 4.5318707813e+01 175.3513288377
3.4696257251e+04 4.5316824571e+01 175.3648656910
3.4798275655e+04 4.5314957867e+01 175.3783243177
3.4900294059e+04 4.5313107507e+01 175.3917053906
3.5002312462e+04 4.5311273303e+01 175.4050095749
3.5104330866e+04 4.5309455066e+01 175.4182375281
3.5206349270e+04 4.5307652611e+01 175.4313899003
3.5308367674e+04 4.5305865756e+01 175.4444673344
3.5410386077e+04 4.5304094323e+01 175.4574704660
3.5512404481e+04 4.5302338133e+01 175.4703999234
3.5614422885e+04 4.5300597012e+01 175.4832563282
3.5716441288e+04 4.5298870789e+01 175.4960402947
3.5818459692e+04 4.5297159294e+01 175.5087524307
3.5920478096e+04 4.5295462360e+01 175.5213933369
3.6022496499e+04 4.5293779822e+01 175.5339636077
3.6124514903e+04 4.5292111518e+01 175.5464638307
3.6226533307e+04 4.5290457288e+01 175.5588945871
3.6328551710e+04 4.5288816973e+01 175.5712564518
3.6430570114e+04 4.5287190419e+01 175.5835499933
3.6532588518e+04 4.5285577472e+01 175.5957757739
3.6634606921e+04 4.5283977980e+01 175.6079343498
3.6736625325e+04 4.5282391794e+01 175.6200262712
3.6838643729e+04 4.5280818768e+01 175.6320520822
3.6940662132e+04 4.5279258755e+01 175.6440123212
3.7042680536e+04 4.5277711613e+01 175.6559075207
3.7144698940e+04 4.5276177200e+01 175.6677382074
3.7246717343e+04 4.5274655378e+01 175.6795049025
3.7348735747e+04 4.5273146008e+01 175.6912081216
3.7450754151e+04 4.5271648956e+01 175.7028483747
3.7552772555e+04 4.5270164087e+01 175.7144261665
3.7654790958e+04 4.5268691271e+01 175.7259419962
3.7756809362e+04 4.5267230376e+01 175.7373963578
3.7858827766e+04 4.5265781274e+01 175.7487897402
3.7960846169e+04 4.5264343840e+01 175.7601226269
3.8062864573e+04 4.5262917947e+01 175.7713954966
3.8164882977e+04 4.5261503473e+01 175.7826088227
3.8266901380e+04 4.5260100296e+01 175.7937630739
3.8368919784e+04 4.5258708297e+01 175.8048587138
3.8470938188e+04 4.5257327356e+01 175.8158962014
3.8572956591e+04 4.5255957357e+01 175.8268759908
3.8674974995e+04 4.5254598184e+01 175.8377985315
3.8776993399e+04 4.5253249725e+01 175.8486642682
3.8879011802e+04 4.5251911866e+01 175.8594736411
3.8981030206e+04 4.5250584496e+01 175.8702270860
3.9083048610e+04 4.5249267507e+01 175.8809250342
3.9185067013e+04 4.5247960791e+01 175.8915679123
3.9287085417e+04 4.5246664240e+01 175.9021561430
3.9389103821e+04 4.5245377750e+01 175.9126901445
3.9491122224e+04 4.5244101217e+01 175.9231703306
3.9593140628e+04 4.5242834538e+01 175.9335971112
3.9695159032e+04 4.5241577612e+01 175.9439708919
3.9797177435e+04 4.5240330340e+01 175.9542920743
3.9899195839e+04 4.5239092622e+01 175.9645610558
4.0001214243e+04 4.5237864362e+01 175.9747782301
4.0103232647e+04 4.5236645463e+01 175.9849439867
4.0205251050e+04 4.5235435830e+01 175.9950587114
4.0307269454e+04 4.5234235370e+01 176.0051227860
4.0409287858e+04 4.5233043991e+01 176.0151365887
4.0511306261e+04 4.5231861600e+01 176.0251004939
4.0613324665e+04 4.5230688107e+01 176.0350148721
4.0715343069e+04 4.5229523425e+01 176.0448800906
4.0817361472e+04 4.5228367464e+01 176.0546965126
4.0919379876e+04 4.5227220137e+01 176.0644644980
4.1021398280e+04 4.5226081360e+01 176.0741844032
4.1123416683e+04 4.5224951047e+01 176.0838565811
4.1225435087e+04 4.5223829114e+01 176.0934813811
4.1327453491e+04 4.5222715480e+01 176.1030591491
4.1429471894e+04 4.5221610061e+01 176.1125902281
