Frequenz Impedanz Phase
1.0000000000e+00 4.0030175760e+00 -179.0735839058
5.0006001200e+00 4.0278113703e+00 -175.3550417274
9.0012002400e+00 4.0884565713e+00 -171.5899586559
1.3001800360e+01 4.1921538483e+00 -167.7532143294
1.7002400480e+01 4.3517671470e+00 -163.8452123748
2.1003000600e+01 4.5882719443e+00 -159.9149639933
2.5003600720e+01 4.9348358513e+00 -156.0990094467
2.9004200840e+01 5.4431338649e+00 -152.6859111651
3.3004800960e+01 6.1914919218e+00 -150.2200943994
3.7005401080e+01 7.2874492877e+00 -149.6586044598
4.1006001200e+01 8.8239339838e+00 -152.5397266539
4.5006601320e+01 1.0648642462e+01 -160.7469810941
4.9007201440e+01 1.1907618805e+01 -174.4628227715
5.3007801560e+01 1.1630669625e+01 170.7880773682
5.7008401680e+01 1.0327515891e+01 160.1750073633
6.1009001800e+01 8.9669098425e+00 154.3471150813
6.5009601920e+01 7.8892934691e+00 151.7414730299
6.9010202040e+01 7.0919013744e+00 150.9738034178
7.3010802160e+01 6.5045832562e+00 151.2007317871
7.7011402280e+01 6.0655517750e+00 151.9497981883
8.1012002400e+01 5.7308151393e+00 152.9596552978
8.5012602521e+01 5.4704677675e+00 154.0851832116
8.9013202641e+01 5.2642059916e+00 155.2456147287
9.3013802761e+01 5.0980569500e+00 156.3963468557
9.7014402881e+01 4.9622268266e+00 157.5133959680
1.0101500300e+02 4.8497175139e+00 158.5846572388
1.0501560312e+02 4.7554342889e+00 159.6048970365
1.0901620324e+02 4.6756025451e+00 160.5728375741
1.1301680336e+02 4.6073800570e+00 161.4894383394
1.1701740348e+02 4.5485945940e+00 162.3568746596
1.2101800360e+02 4.4975632049e+00 163.1779287333
1.2501860372e+02 4.4529656391e+00 163.9556278449
1.2901920384e+02 4.4137542637e+00 164.6930321555
1.3301980396e+02 4.3790889952e+00 165.3931135859
1.3702040408e+02 4.3482896419e+00 166.0586903020
1.4102100420e+02 4.3208005455e+00 166.6923950512
1.4502160432e+02 4.2961640309e+00 167.2966639102
1.4902220444e+02 4.2740002456e+00 167.8737371025
1.5302280456e+02 4.2539916899e+00 168.4256666943
1.5702340468e+02 4.2358712317e+00 168.9543279471
1.6102400480e+02 4.2194127357e+00 169.4614323409
1.6502460492e+02 4.2044236732e+00 169.9485410624
1.6902520504e+02 4.1907392489e+00 170.4170782441
1.7302580516e+02 4.1782176966e+00 170.8683435523
1.7702640528e+02 4.1667364863e+00 171.3035239162
1.8102700540e+02 4.1561892437e+00 171.7237043114
1.8502760552e+02 4.1464832345e+00 172.1298775843
1.8902820564e+02 4.1375372969e+00 172.5229533490
1.9302880576e+02 4.1292801330e+00 172.9037660084
1.9702940588e+02 4.1216488895e+00 173.2730819684
2.0103000600e+02 4.1145879724e+00 173.6316061130
2.0503060612e+02 4.1080480535e+00 173.9799876112
2.0903120624e+02 4.1019852322e+00 174.3188251228
2.1303180636e+02 4.0963603268e+00 174.6486714647
2.1703240648e+02 4.0911382723e+00 174.9700377956
2.2103300660e+02 4.0862876063e+00 175.2833973706
2.2503360672e+02 4.0817800291e+00 175.5891889133
2.2903420684e+02 4.0775900256e+00 175.8878196461
2.3303480696e+02 4.0736945393e+00 176.1796680168
2.3703540708e+02 4.0700726906e+00 176.4650861551
2.4103600720e+02 4.0667055316e+00 176.7444020870
2.4503660732e+02 4.0635758337e+00 177.0179217354
2.4903720744e+02 4.0606679016e+00 177.2859307273
2.5303780756e+02 4.0579674105e+00 177.5486960310
2.5703840768e+02 4.0554612639e+00 177.8064674390
2.6103900780e+02 4.0531374672e+00 178.0594789141
2.6503960792e+02 4.0509850181e+00 178.3079498128
2.6904020804e+02 4.0489938077e+00 178.5520859977
2.7304080816e+02 4.0471545346e+00 178.7920808515
2.7704140828e+02 4.0454586276e+00 179.0281162013
2.8104200840e+02 4.0438981772e+00 179.2603631631
2.8504260852e+02 4.0424658748e+00 179.4889829140
2.8904320864e+02 4.0411549578e+00 179.7141273982
2.9304380876e+02 4.0399591612e+00 179.9359399753
2.9704440888e+02 4.0388726736e+00 -179.8454439860
3.0104500900e+02 4.0378900980e+00 -179.6298965618
3.0504560912e+02 4.0370064164e+00 -179.4172967713
3.0904620924e+02 4.0362169581e+00 -179.2075301145
3.1304680936e+02 4.0355173708e+00 -179.0004881469
3.1704740948e+02 4.0349035943e+00 -178.7960680863
3.2104800960e+02 4.0343718378e+00 -178.5941724503
3.2504860972e+02 4.0339185576e+00 -178.3947087208
3.2904920984e+02 4.0335404385e+00 -178.1975890342
3.3304980996e+02 4.0332343756e+00 -178.0027298939
3.3705041008e+02 4.0329974586e+00 -177.8100519037
3.4105101020e+02 4.0328269570e+00 -177.6194795213
3.4505161032e+02 4.0327203070e+00 -177.4309408280
3.4905221044e+02 4.0326750989e+00 -177.2443673160
3.5305281056e+02 4.0326890663e+00 -177.0596936899
3.5705341068e+02 4.0327600756e+00 -176.8768576815
3.6105401080e+02 4.0328861169e+00 -176.6957998781
3.6505461092e+02 4.0330652950e+00 -176.5164635613
3.6905521104e+02 4.0332958219e+00 -176.3387945580
3.7305581116e+02 4.0335760093e+00 -176.1627410994
3.7705641128e+02 4.0339042619e+00 -175.9882536908
3.8105701140e+02 4.0342790710e+00 -175.8152849891
3.8505761152e+02 4.0346990093e+00 -175.6437896878
3.8905821164e+02 4.0351627253e+00 -175.4737244099
3.9305881176e+02 4.0356689383e+00 -175.3050476074
3.9705941188e+02 4.0362164342e+00 -175.1377194664
4.0106001200e+02 4.0368040611e+00 -174.9717018188
4.0506061212e+02 4.0374307254e+00 -174.8069580592
4.0906121224e+02 4.0380953886e+00 -174.6434530658
4.1306181236e+02 4.0387970634e+00 -174.4811531280
4.1706241248e+02 4.0395348108e+00 -174.3200258758
4.2106301260e+02 4.0403077374e+00 -174.1600402157
4.2506361272e+02 4.0411149926e+00 -174.0011662684
4.2906421284e+02 4.0419557661e+00 -173.8433753112
4.3306481296e+02 4.0428292854e+00 -173.6866397233
4.3706541308e+02 4.0437348137e+00 -173.5309329340
4.4106601320e+02 4.0446716483e+00 -173.3762293741
4.4506661332e+02 4.0456391180e+00 -173.2225044298
4.4906721344e+02 4.0466365818e+00 -173.0697343993
4.5306781356e+02 4.0476634271e+00 -172.9178964511
4.5706841368e+02 4.0487190680e+00 -172.7669685855
4.6106901380e+02 4.0498029443e+00 -172.6169295977
4.6506961392e+02 4.0509145195e+00 -172.4677590423
4.6907021404e+02 4.0520532800e+00 -172.3194372008
4.7307081416e+02 4.0532187338e+00 -172.1719450496
4.7707141428e+02 4.0544104093e+00 -172.0252642306
4.8107201440e+02 4.0556278542e+00 -171.8793770227
4.8507261452e+02 4.0568706345e+00 -171.7342663147
4.8907321464e+02 4.0581383339e+00 -171.5899155803
4.9307381476e+02 4.0594305523e+00 -171.4463088534
4.9707441488e+02 4.0607469057e+00 -171.3034307051
5.0107501500e+02 4.0620870247e+00 -171.1612662217
5.0507561512e+02 4.0634505544e+00 -171.0198009841
5.0907621524e+02 4.0648371531e+00 -170.8790210475
5.1307681536e+02 4.0662464922e+00 -170.7389129229
5.1707741548e+02 4.0676782552e+00 -170.5994635586
5.2107801560e+02 4.0691321374e+00 -170.4606603233
5.2507861572e+02 4.0706078450e+00 -170.3224909894
5.2907921584e+02 4.0721050950e+00 -170.1849437180
5.3307981596e+02 4.0736236143e+00 -170.0480070430
5.3708041608e+02 4.0751631395e+00 -169.9116698578
5.4108101620e+02 4.0767234164e+00 -169.7759214010
5.4508161632e+02 4.0783041994e+00 -169.6407512437
5.4908221644e+02 4.0799052516e+00 -169.5061492772
5.5308281656e+02 4.0815263437e+00 -169.3721057008
5.5708341668e+02 4.0831672543e+00 -169.2386110106
5.6108401680e+02 4.0848277692e+00 -169.1056559887
5.6508461692e+02 4.0865076812e+00 -168.9732316926
5.6908521704e+02 4.0882067896e+00 -168.8413294457
5.7308581716e+02 4.0899249004e+00 -168.7099408271
5.7708641728e+02 4.0916618254e+00 -168.5790576632
5.8108701740e+02 4.0934173824e+00 -168.4486720182
5.8508761752e+02 4.0951913949e+00 -168.3187761864
5.8908821764e+02 4.0969836914e+00 -168.1893626839
5.9308881776e+02 4.0987941058e+00 -168.0604242407
5.9708941788e+02 4.1006224771e+00 -167.9319537935
6.0109001800e+02 4.1024686485e+00 -167.8039444788
6.0509061812e+02 4.1043324683e+00 -167.6763896258
6.0909121824e+02 4.1062137887e+00 -167.5492827498
6.1309181836e+02 4.1081124662e+00 -167.4226175464
6.1709241848e+02 4.1100283615e+00 -167.2963878849
6.2109301860e+02 4.1119613388e+00 -167.1705878029
6.2509361872e+02 4.1139112662e+00 -167.0452115006
6.2909421884e+02 4.1158780153e+00 -166.9202533353
6.3309481896e+02 4.1178614611e+00 -166.7957078168
6.3709541908e+02 4.1198614818e+00 -166.6715696017
6.4109601920e+02 4.1218779588e+00 -166.5478334892
6.4509661932e+02 4.1239107766e+00 -166.4244944162
6.4909721944e+02 4.1259598225e+00 -166.3015474531
6.5309781956e+02 4.1280249865e+00 -166.1789877994
6.5709841968e+02 4.1301061614e+00 -166.0568107799
6.6109901980e+02 4.1322032427e+00 -165.9350118402
6.6509961992e+02 4.1343161283e+00 -165.8135865437
6.6910022004e+02 4.1364447183e+00 -165.6925305670
6.7310082016e+02 4.1385889154e+00 -165.5718396972
6.7710142028e+02 4.1407486243e+00 -165.4515098282
6.8110202040e+02 4.1429237521e+00 -165.3315369573
6.8510262052e+02 4.1451142077e+00 -165.2119171821
6.8910322064e+02 4.1473199021e+00 -165.0926466975
6.9310382076e+02 4.1495407483e+00 -164.9737217929
6.9710442088e+02 4.1517766610e+00 -164.8551388490
7.0110502100e+02 4.1540275568e+00 -164.7368943356
7.0510562112e+02 4.1562933539e+00 -164.6189848083
7.0910622124e+02 4.1585739723e+00 -164.5014069065
7.1310682136e+02 4.1608693336e+00 -164.3841573505
7.1710742148e+02 4.1631793607e+00 -164.2672329396
7.2110802160e+02 4.1655039783e+00 -164.1506305492
7.2510862172e+02 4.1678431124e+00 -164.0343471293
7.2910922184e+02 4.1701966905e+00 -163.9183797015
7.3310982196e+02 4.1725646412e+00 -163.8027253577
7.3711042208e+02 4.1749468947e+00 -163.6873812576
7.4111102220e+02 4.1773433823e+00 -163.5723446270
7.4511162232e+02 4.1797540365e+00 -163.4576127557
7.4911222244e+02 4.1821787909e+00 -163.3431829959
7.5311282256e+02 4.1846175806e+00 -163.2290527604
7.5711342268e+02 4.1870703413e+00 -163.1152195207
7.6111402280e+02 4.1895370101e+00 -163.0016808056
7.6511462292e+02 4.1920175251e+00 -162.8884341995
7.6911522304e+02 4.1945118252e+00 -162.7754773406
7.7311582316e+02 4.1970198505e+00 -162.6628079201
7.7711642328e+02 4.1995415419e+00 -162.5504236798
7.8111702340e+02 4.2020768412e+00 -162.4383224116
7.8511762352e+02 4.2046256910e+00 -162.3265019554
7.8911822364e+02 4.2071880350e+00 -162.2149601984
7.9311882376e+02 4.2097638175e+00 -162.1036950734
7.9711942388e+02 4.2123529837e+00 -161.9927045576
8.0112002400e+02 4.2149554795e+00 -161.8819866715
8.0512062412e+02 4.2175712515e+00 -161.7715394780
8.0912122424e+02 4.2202002471e+00 -161.6613610806
8.1312182436e+02 4.2228424146e+00 -161.5514496229
8.1712242448e+02 4.2254977025e+00 -161.4418032873
8.2112302460e+02 4.2281660604e+00 -161.3324202940
8.2512362472e+02 4.2308474384e+00 -161.2232989000
8.2912422484e+02 4.2335417871e+00 -161.1144373981
8.3312482496e+02 4.2362490578e+00 -161.0058341161
8.3712542509e+02 4.2389692024e+00 -160.8974874155
8.4112602521e+02 4.2417021734e+00 -160.7893956911
8.4512662533e+02 4.2444479238e+00 -160.6815573699
8.4912722545e+02 4.2472064071e+00 -160.5739709101
8.5312782557e+02 4.2499775773e+00 -160.4666348008
8.5712842569e+02 4.2527613890e+00 -160.3595475605
8.6112902581e+02 4.2555577973e+00 -160.2527077370
8.6512962593e+02 4.2583667576e+00 -160.1461139061
8.6913022605e+02 4.2611882260e+00 -160.0397646714
8.7313082617e+02 4.2640221589e+00 -159.9336586631
8.7713142629e+02 4.2668685132e+00 -159.8277945377
8.8113202641e+02 4.2697272462e+00 -159.7221709770
8.8513262653e+02 4.2725983156e+00 -159.6167866879
8.8913322665e+02 4.2754816795e+00 -159.5116404014
8.9313382677e+02 4.2783772964e+00 -159.4067308718
8.9713442689e+02 4.2812851252e+00 -159.3020568769
9.0113502701e+02 4.2842051252e+00 -159.1976172166
9.0513562713e+02 4.2871372560e+00 -159.0934107128
9.0913622725e+02 4.2900814775e+00 -158.9894362085
9.1313682737e+02 4.2930377501e+00 -158.8856925677
9.1713742749e+02 4.2960060344e+00 -158.7821786746
9.2113802761e+02 4.2989862914e+00 -158.6788934331
9.2513862773e+02 4.3019784824e+00 -158.5758357665
9.2913922785e+02 4.3049825690e+00 -158.4730046168
9.3313982797e+02 4.3079985130e+00 -158.3703989443
9.3714042809e+02 4.3110262768e+00 -158.2680177272
9.4114102821e+02 4.3140658226e+00 -158.1658599612
9.4514162833e+02 4.3171171134e+00 -158.0639246590
9.4914222845e+02 4.3201801121e+00 -157.9622108497
9.5314282857e+02 4.3232547820e+00 -157.8607175789
9.5714342869e+02 4.3263410866e+00 -157.7594439077
9.6114402881e+02 4.3294389898e+00 -157.6583889128
9.6514462893e+02 4.3325484557e+00 -157.5575516859
9.6914522905e+02 4.3356694484e+00 -157.4569313334
9.7314582917e+02 4.3388019326e+00 -157.3565269757
9.7714642929e+02 4.3419458730e+00 -157.2563377477
9.8114702941e+02 4.3451012345e+00 -157.1563627975
9.8514762953e+02 4.3482679824e+00 -157.0566012866
9.8914822965e+02 4.3514460820e+00 -156.9570523895
9.9314882977e+02 4.3546354991e+00 -156.8577152935
9.9714942989e+02 4.3578361993e+00 -156.7585891982
1.0011500300e+03 4.3610481488e+00 -156.6596733150
1.0051506301e+03 4.3642713138e+00 -156.5609668673
1.0091512302e+03 4.3675056606e+00 -156.4624690902
1.0131518304e+03 4.3707511560e+00 -156.3641792296
1.0171524305e+03 4.3740077665e+00 -156.2660965427
1.0211530306e+03 4.3772754593e+00 -156.1682202971
1.0251536307e+03 4.3805542015e+00 -156.0705497711
1.0291542308e+03 4.3838439603e+00 -155.9730842530
1.0331548310e+03 4.3871447033e+00 -155.8758230411
1.0371554311e+03 4.3904563981e+00 -155.7787654435
1.0411560312e+03 4.3937790125e+00 -155.6819107777
1.0451566313e+03 4.3971125145e+00 -155.5852583705
1.0491572314e+03 4.4004568721e+00 -155.4888075577
1.0531578316e+03 4.4038120538e+00 -155.3925576839
1.0571584317e+03 4.4071780278e+00 -155.2965081024
1.0611590318e+03 4.4105547628e+00 -155.2006581748
1.0651596319e+03 4.4139422275e+00 -155.1050072710
1.0691602320e+03 4.4173403907e+00 -155.0095547690
1.0731608322e+03 4.4207492214e+00 -154.9143000545
1.0771614323e+03 4.4241686889e+00 -154.8192425209
1.0811620324e+03 4.4275987622e+00 -154.7243815690
1.0851626325e+03 4.4310394109e+00 -154.6297166071
1.0891632326e+03 4.4344906044e+00 -154.5352470504
1.0931638328e+03 4.4379523125e+00 -154.4409723211
1.0971644329e+03 4.4414245049e+00 -154.3468918484
1.1011650330e+03 4.4449071514e+00 -154.2530050678
1.1051656331e+03 4.4484002222e+00 -154.1593114217
1.1091662332e+03 4.4519036874e+00 -154.0658103584
1.1131668334e+03 4.4554175171e+00 -153.9725013327
1.1171674335e+03 4.4589416819e+00 -153.8793838052
1.1211680336e+03 4.4624761522e+00 -153.7864572427
1.1251686337e+03 4.4660208986e+00 -153.6937211176
1.1291692338e+03 4.4695758917e+00 -153.6011749077
1.1331698340e+03 4.4731411025e+00 -153.5088180967
1.1371704341e+03 4.4767165019e+00 -153.4166501735
1.1411710342e+03 4.4803020608e+00 -153.3246706322
1.1451716343e+03 4.4838977504e+00 -153.2328789720
1.1491722344e+03 4.4875035420e+00 -153.1412746972
1.1531728346e+03 4.4911194069e+00 -153.0498573170
1.1571734347e+03 4.4947453165e+00 -152.9586263453
1.1611740348e+03 4.4983812423e+00 -152.8675813008
1.1651746349e+03 4.5020271561e+00 -152.7767217065
1.1691752350e+03 4.5056830295e+00 -152.6860470902
1.1731758352e+03 4.5093488343e+00 -152.5955569837
1.1771764353e+03 4.5130245425e+00 -152.5052509233
1.1811770354e+03 4.5167101261e+00 -152.4151284493
1.1851776355e+03 4.5204055571e+00 -152.3251891062
1.1891782356e+03 4.5241108079e+00 -152.2354324424
1.1931788358e+03 4.5278258505e+00 -152.1458580101
1.1971794359e+03 4.5315506575e+00 -152.0564653655
1.2011800360e+03 4.5352852012e+00 -151.9672540681
1.2051806361e+03 4.5390294542e+00 -151.8782236814
1.2091812362e+03 4.5427833892e+00 -151.7893737723
1.2131818364e+03 4.5465469788e+00 -151.7007039110
1.2171824365e+03 4.5503201958e+00 -151.6122136714
1.2211830366e+03 4.5541030131e+00 -151.5239026303
1.2251836367e+03 4.5578954037e+00 -151.4357703680
1.2291842368e+03 4.5616973406e+00 -151.3478164678
1.2331848370e+03 4.5655087968e+00 -151.2600405161
1.2371854371e+03 4.5693297457e+00 -151.1724421024
1.2411860372e+03 4.5731601605e+00 -151.0850208190
1.2451866373e+03 4.5770000145e+00 -150.9977762611
1.2491872374e+03 4.5808492812e+00 -150.9107080267
1.2531878376e+03 4.5847079341e+00 -150.8238157166
1.2571884377e+03 4.5885759467e+00 -150.7370989341
1.2611890378e+03 4.5924532928e+00 -150.6505572854
1.2651896379e+03 4.5963399460e+00 -150.5641903789
1.2691902380e+03 4.6002358801e+00 -150.4779978258
1.2731908382e+03 4.6041410691e+00 -150.3919792396
1.2771914383e+03 4.6080554868e+00 -150.3061342361
1.2811920384e+03 4.6119791074e+00 -150.2204624336
1.2851926385e+03 4.6159119049e+00 -150.1349634526
1.2891932386e+03 4.6198538535e+00 -150.0496369158
1.2931938388e+03 4.6238049274e+00 -149.9644824481
1.2971944389e+03 4.6277651009e+00 -149.8794996765
1.3011950390e+03 4.6317343484e+00 -149.7946882302
1.3051956391e+03 4.6357126444e+00 -149.7100477401
1.3091962392e+03 4.6396999633e+00 -149.6255778395
1.3131968394e+03 4.6436962799e+00 -149.5412781635
1.3171974395e+03 4.6477015686e+00 -149.4571483488
1.3211980396e+03 4.6517158042e+00 -149.3731880344
1.3251986397e+03 4.6557389616e+00 -149.2893968608
1.3291992398e+03 4.6597710156e+00 -149.2057744705
1.3331998400e+03 4.6638119411e+00 -149.1223205074
1.3372004401e+03 4.6678617131e+00 -149.0390346176
1.3412010402e+03 4.6719203066e+00 -148.9559164483
1.3452016403e+03 4.6759876968e+00 -148.8729656486
1.3492022404e+03 4.6800638588e+00 -148.7901818693
1.3532028406e+03 4.6841487680e+00 -148.7075647626
1.3572034407e+03 4.6882423996e+00 -148.6251139821
1.3612040408e+03 4.6923447290e+00 -148.5428291830
1.3652046409e+03 4.6964557316e+00 -148.4607100220
1.3692052410e+03 4.7005753830e+00 -148.3787561572
1.3732058412e+03 4.7047036587e+00 -148.2969672480
1.3772064413e+03 4.7088405344e+00 -148.2153429552
1.3812070414e+03 4.7129859857e+00 -148.1338829410
1.3852076415e+03 4.7171399884e+00 -148.0525868686
1.3892082416e+03 4.7213025184e+00 -147.9714544029
1.3932088418e+03 4.7254735515e+00 -147.8904852098
1.3972094419e+03 4.7296530636e+00 -147.8096789564
1.4012100420e+03 4.7338410308e+00 -147.7290353110
1.4052106421e+03 4.7380374292e+00 -147.6485539432
1.4092112422e+03 4.7422422348e+00 -147.5682345234
1.4132118424e+03 4.7464554238e+00 -147.4880767236
1.4172124425e+03 4.7506769726e+00 -147.4080802165
1.4212130426e+03 4.7549068574e+00 -147.3282446760
1.4252136427e+03 4.7591450546e+00 -147.2485697771
1.4292142428e+03 4.7633915406e+00 -147.1690551957
1.4332148430e+03 4.7676462919e+00 -147.0897006087
1.4372154431e+03 4.7719092851e+00 -147.0105056942
1.4412160432e+03 4.7761804967e+00 -146.9314701310
1.4452166433e+03 4.7804599036e+00 -146.8525935990
1.4492172434e+03 4.7847474822e+00 -146.7738757789
1.4532178436e+03 4.7890432096e+00 -146.6953163524
1.4572184437e+03 4.7933470625e+00 -146.6169150021
1.4612190438e+03 4.7976590177e+00 -146.5386714113
1.4652196439e+03 4.8019790524e+00 -146.4605852643
1.4692202440e+03 4.8063071435e+00 -146.3826562462
1.4732208442e+03 4.8106432681e+00 -146.3048840429
1.4772214443e+03 4.8149874033e+00 -146.2272683412
1.4812220444e+03 4.8193395263e+00 -146.1498088285
1.4852226445e+03 4.8236996145e+00 -146.0725051931
1.4892232446e+03 4.8280676450e+00 -145.9953571239
1.4932238448e+03 4.8324435953e+00 -145.9183643108
1.4972244449e+03 4.8368274429e+00 -145.8415264442
1.5012250450e+03 4.8412191651e+00 -145.7648432154
1.5052256451e+03 4.8456187395e+00 -145.6883143161
1.5092262452e+03 4.8500261438e+00 -145.6119394390
1.5132268454e+03 4.8544413555e+00 -145.5357182773
1.5172274455e+03 4.8588643525e+00 -145.4596505249
1.5212280456e+03 4.8632951125e+00 -145.3837358764
1.5252286457e+03 4.8677336133e+00 -145.3079740270
1.5292292458e+03 4.8721798327e+00 -145.2323646725
1.5332298460e+03 4.8766337488e+00 -145.1569075092
1.5372304461e+03 4.8810953396e+00 -145.0816022343
1.5412310462e+03 4.8855645830e+00 -145.0064485454
1.5452316463e+03 4.8900414572e+00 -144.9314461407
1.5492322464e+03 4.8945259404e+00 -144.8565947190
1.5532328466e+03 4.8990180108e+00 -144.7818939796
1.5572334467e+03 4.9035176466e+00 -144.7073436225
1.5612340468e+03 4.9080248262e+00 -144.6329433480
1.5652346469e+03 4.9125395281e+00 -144.5586928572
1.5692352470e+03 4.9170617305e+00 -144.4845918517
1.5732358472e+03 4.9215914121e+00 -144.4106400334
1.5772364473e+03 4.9261285514e+00 -144.3368371049
1.5812370474e+03 4.9306731270e+00 -144.2631827693
1.5852376475e+03 4.9352251176e+00 -144.1896767302
1.5892382476e+03 4.9397845018e+00 -144.1163186915
1.5932388478e+03 4.9443512586e+00 -144.0431083579
1.5972394479e+03 4.9489253666e+00 -143.9700454343
