frequency impedance phase
1.00000000000000e+01	+9.99999607740736e+05,6.28318284597866e+02
1.12018403680736e+02	+9.99950466975413e+05,7.03797525560192e+03
2.14036807361472e+02	+9.99818950418309e+05,1.34458913643138e+04
3.16055211042208e+02	+9.99605918076743e+05,1.98505110389286e+04
4.18073614722945e+02	+9.99310566097930e+05,2.62502326552075e+04
5.20092018403681e+02	+9.98933494055641e+05,3.26435010795025e+04
6.22110422084417e+02	+9.98474434279489e+05,3.90287187933280e+04
7.24128825765153e+02	+9.97934291565488e+05,4.54043748412558e+04
8.26147229445889e+02	+9.97312878011983e+05,5.17688831516749e+04
9.28165633126625e+02	+9.96610610964185e+05,5.81207096954343e+04
1.03018403680736e+03	+9.95827608962850e+05,6.44582926544493e+04
1.13220244048810e+03	+9.94964815182678e+05,7.07801825599644e+04
1.23422084416883e+03	+9.94022088203571e+05,7.70847966166596e+04
1.33623924784957e+03	+9.93000443629031e+05,8.33707261558689e+04
1.43825765153031e+03	+9.91899817536219e+05,8.96364031970713e+04
1.54027605521104e+03	+9.90720853077187e+05,9.58803778493175e+04
1.64229445889178e+03	+9.89464337880587e+05,1.02101246031946e+05
1.74431286257251e+03	+9.88130981531987e+05,1.08297608645971e+05
1.84633126625325e+03	+9.86720870749063e+05,1.14467937195063e+05
1.94834966993399e+03	+9.85235005098935e+05,1.20610912914695e+05
2.05036807361472e+03	+9.83674194802251e+05,1.26725197833472e+05
2.15238647729546e+03	+9.82039064643210e+05,1.32809422245976e+05
2.25440488097620e+03	+9.80330379773608e+05,1.38862265362617e+05
2.35642328465693e+03	+9.78548829181898e+05,1.44882398210145e+05
2.45844168833767e+03	+9.76695557090161e+05,1.50868645902388e+05
2.56046009201840e+03	+9.74771097422839e+05,1.56819665581118e+05
2.66247849569914e+03	+9.72776542064999e+05,1.62734305913008e+05
2.76449689937988e+03	+9.70712380743267e+05,1.68611229485494e+05
2.86651530306061e+03	+9.68580275005598e+05,1.74449529767064e+05
2.96853370674135e+03	+9.66380456496297e+05,1.80247807859573e+05
3.07055211042209e+03	+9.64114319640093e+05,1.86005109443714e+05
3.17257051410282e+03	+9.61782764738865e+05,1.91720318741645e+05
3.27458891778356e+03	+9.59386716430849e+05,1.97392345645599e+05
3.37660732146430e+03	+9.56927520581453e+05,2.03020302805644e+05
3.47862572514503e+03	+9.54405842503116e+05,2.08603030192053e+05
3.58064412882577e+03	+9.51823160905214e+05,2.14139752668074e+05
3.68266253250650e+03	+9.49180376807106e+05,2.19629459310915e+05
3.78468093618724e+03	+9.46478413870562e+05,2.25071162829126e+05
3.88669933986798e+03	+9.43718693734599e+05,2.30464147348610e+05
3.98871774354871e+03	+9.40902264159802e+05,2.35807539816500e+05
4.09073614722945e+03	+9.38030376066910e+05,2.41100598615392e+05
4.19275455091019e+03	+9.35103918368970e+05,2.46342409221147e+05
4.29477295459092e+03	+9.32124351182066e+05,2.51532398447728e+05
4.39679135827166e+03	+9.29092770436662e+05,2.56669820401082e+05
4.49880976195239e+03	+9.26010284350683e+05,2.61753958308623e+05
4.60082816563313e+03	+9.22878367200559e+05,2.66784349023388e+05
4.70284656931387e+03	+9.19697961944570e+05,2.71760230831496e+05
4.80486497299460e+03	+9.16470288487945e+05,2.76681038255308e+05
4.90688337667534e+03	+9.13196828824493e+05,2.81546413500480e+05
5.00890178035607e+03	+9.09878547625805e+05,2.86355685282104e+05
5.11092018403681e+03	+9.06516591531350e+05,2.91108325165229e+05
5.21293858771755e+03	+9.03112692054272e+05,2.95804259240630e+05
5.31495699139828e+03	+8.99667657879404e+05,3.00442786228955e+05
5.41697539507902e+03	+8.96182559598448e+05,3.05023408689424e+05
5.51899379875975e+03	+8.92659032806095e+05,3.09546094670823e+05
5.62101220244049e+03	+8.89098296975155e+05,3.14010539018322e+05
5.72303060612122e+03	+8.85501258095481e+05,3.18416210190886e+05
5.82504900980196e+03	+8.81869141446695e+05,3.22762855329368e+05
5.92706741348270e+03	+8.78203620544813e+05,3.27050643577184e+05
6.02908581716343e+03	+8.74505296084309e+05,3.31278864392202e+05
6.13110422084417e+03	+8.70775897238741e+05,3.35447814458978e+05
6.23312262452490e+03	+8.67016248664153e+05,3.39557030316224e+05
6.33514102820564e+03	+8.63227830101852e+05,3.43606672838204e+05
6.43715943188638e+03	+8.59411674784531e+05,3.47596530336814e+05
6.53917783556711e+03	+8.55568884657063e+05,3.51526482204071e+05
6.64119623924785e+03	+8.51700624522843e+05,3.55396500912122e+05
6.74321464292858e+03	+8.47808183081789e+05,3.59206723102248e+05
6.84523304660932e+03	+8.43892565930064e+05,3.62957035045739e+05
6.94725145029006e+03	+8.39955035603808e+05,3.66647624288601e+05
7.04926985397079e+03	+8.35996770460814e+05,3.70278634804160e+05
7.15128825765153e+03	+8.32018492913313e+05,3.73849739701228e+05
7.25330666133226e+03	+8.28021678818612e+05,3.77361479460235e+05
7.35532506501300e+03	+8.24007280067098e+05,3.80813853299966e+05
7.45734346869374e+03	+8.19976362705828e+05,3.84207022527283e+05
7.55936187237447e+03	+8.15930037356100e+05,3.87541241103703e+05
7.66138027605521e+03	+8.11869223431038e+05,3.90816567620021e+05
7.76339867973594e+03	+8.07795003594922e+05,3.94033295295573e+05
7.86541708341668e+03	+8.03708441583488e+05,3.97191736962364e+05
7.96743548709741e+03	+7.99610418046546e+05,4.00292006317872e+05
8.06945389077815e+03	+7.95501913311240e+05,4.03334378943632e+05
8.17147229445889e+03	+7.91384049112652e+05,4.06319366866421e+05
8.27349069813962e+03	+7.87257610770586e+05,4.09247060518273e+05
8.37550910182036e+03	+7.83123580626378e+05,4.12117858265508e+05
8.47752750550110e+03	+7.78982822565093e+05,4.14932026578277e+05
8.57954590918183e+03	+7.74836283961515e+05,4.17689993758315e+05
8.68156431286257e+03	+7.70684986971248e+05,4.20392349348698e+05
8.78358271654331e+03	+7.66529553290761e+05,4.23039107296547e+05
8.88560112022404e+03	+7.62370925679929e+05,4.25630809451347e+05
8.98761952390478e+03	+7.58209888800939e+05,4.28167788652653e+05
9.08963792758552e+03	+7.54047301027224e+05,4.30650537001088e+05
9.19165633126625e+03	+7.49883999897523e+05,4.33079557629495e+05
9.29367473494699e+03	+7.45720801952688e+05,4.35455364129484e+05
9.39569313862773e+03	+7.41558259009490e+05,4.37778036653917e+05
9.49771154230847e+03	+7.37397282220081e+05,4.40048329455150e+05
9.59972994598920e+03	+7.33238556632337e+05,4.42266636262915e+05
9.70174834966994e+03	+7.29082791576418e+05,4.44433433085667e+05
9.80376675335068e+03	+7.24930680060772e+05,4.46549203333376e+05
9.90578515703141e+03	+7.20782897685327e+05,4.48614437919103e+05
1.00078035607121e+04	+7.16640103439117e+05,4.50629634390850e+05
1.01098219643929e+04	+7.12502904861359e+05,4.52595223375355e+05
1.02118403680736e+04	+7.08372030849227e+05,4.54511934439830e+05
1.03138587717544e+04	+7.04247954798410e+05,4.56379989345510e+05
1.04158771754351e+04	+7.00131433306745e+05,4.58200273642419e+05
1.05178955791158e+04	+6.96022880130889e+05,4.59972946325248e+05
1.06199139827966e+04	+6.91922920986788e+05,4.61698681836298e+05
1.07219323864773e+04	+6.87832070828847e+05,4.63377939596563e+05
1.08239507901580e+04	+6.83750974655644e+05,4.65011544487247e+05
1.09259691938388e+04	+6.79679916040593e+05,4.66599455868757e+05
1.10279875975195e+04	+6.75619673851943e+05,4.68142936154105e+05
1.11300060012003e+04	+6.71570508957824e+05,4.69641951013222e+05
1.12320244048810e+04	+6.67532971347307e+05,4.71097260984605e+05
1.13340428085617e+04	+6.63507562338202e+05,4.72509554118660e+05
1.14360612122425e+04	+6.59494643151034e+05,4.73879162309537e+05
1.15380796159232e+04	+6.55494684755975e+05,4.75206775192370e+05
1.16400980196039e+04	+6.51508049033969e+05,4.76492798256929e+05
1.17421164232847e+04	+6.47535132423445e+05,4.77737779891507e+05
1.18441348269654e+04	+6.43576359378227e+05,4.78942408492471e+05
1.19461532306461e+04	+6.39632074503046e+05,4.80107160314124e+05
1.20481716343269e+04	+6.35702631198943e+05,4.81232581493272e+05
1.21501900380076e+04	+6.31788369378996e+05,4.82319217211524e+05
1.22522084416884e+04	+6.27889616575301e+05,4.83367611200307e+05
1.23542268453691e+04	+6.24006669552888e+05,4.84378237063278e+05
1.24562452490498e+04	+6.20139882786026e+05,4.85351841584909e+05
1.25582636527306e+04	+6.16289509441699e+05,4.86288825302211e+05
1.26602820564113e+04	+6.12455796071721e+05,4.87189588842144e+05
1.27623004600920e+04	+6.08639041796510e+05,4.88054803213698e+05
1.28643188637728e+04	+6.04839529547241e+05,4.88885134332581e+05
1.29663372674535e+04	+6.01057470839213e+05,4.89680975163868e+05
1.30683556711343e+04	+5.97293097031819e+05,4.90442851499271e+05
1.31703740748150e+04	+5.93546603774466e+05,4.91171153366389e+05
1.32723924784957e+04	+5.89818240564420e+05,4.91866600010245e+05
1.33744108821765e+04	+5.86108170511884e+05,4.92529509591151e+05
1.34764292858572e+04	+5.82416630136587e+05,4.93160657731628e+05
1.35784476895379e+04	+5.78743784629793e+05,4.93760486312305e+05
1.36804660932187e+04	+5.75089782508336e+05,4.94329369969874e+05
1.37824844968994e+04	+5.71454785190597e+05,4.94867810783112e+05
1.38845029005801e+04	+5.67838971119801e+05,4.95376498666481e+05
1.39865213042609e+04	+5.64242462107629e+05,4.95855797217169e+05
1.40885397079416e+04	+5.60665383170323e+05,4.96306131778184e+05
1.41905581116224e+04	+5.57107859700937e+05,4.96727987702465e+05
1.42925765153031e+04	+5.53570022135577e+05,4.97121971075534e+05
1.43945949189838e+04	+5.50051969976578e+05,4.97488494027964e+05
1.44966133226646e+04	+5.46553796583294e+05,4.97827965533909e+05
1.45986317263453e+04	+5.43075610754739e+05,4.98141037387245e+05
1.47006501300260e+04	+5.39617483878994e+05,4.98428046643559e+05
1.48026685337068e+04	+5.36179478856575e+05,4.98689267687652e+05
1.49046869373875e+04	+5.32761696723140e+05,4.98925578759914e+05
1.50067053410683e+04	+5.29364169651311e+05,4.99137002111850e+05
1.51087237447490e+04	+5.25986969186117e+05,4.99324222084718e+05
1.52107421484297e+04	+5.22630140070694e+05,4.99487615542062e+05
1.53127605521105e+04	+5.19293722118611e+05,4.99627555846398e+05
1.54147789557912e+04	+5.15977754306160e+05,4.99744530085441e+05
1.55167973594719e+04	+5.12682272566099e+05,4.99839193683519e+05
1.56188157631527e+04	+5.09407286542569e+05,4.99911438489998e+05
1.57208341668334e+04	+5.06152825255893e+05,4.99962142586100e+05
1.58228525705141e+04	+5.02918897166554e+05,4.99991424060280e+05
1.59248709741949e+04	+4.99705511084561e+05,4.99999971347859e+05
1.60268893778756e+04	+4.96512668992570e+05,4.99987783179819e+05
1.61289077815564e+04	+4.93340368154585e+05,4.99955536399649e+05
1.62309261852371e+04	+4.90188596154645e+05,4.99903784062682e+05
1.63329445889178e+04	+4.87057349770277e+05,4.99832405574837e+05
1.64349629925986e+04	+4.83946602665126e+05,4.99742223206981e+05
1.65369813962793e+04	+4.80856338546701e+05,4.99633387035141e+05
1.66389997999600e+04	+4.77786529913493e+05,4.99506319232310e+05
1.67410182036408e+04	+4.74737149822207e+05,4.99361327725857e+05
1.68430366073215e+04	+4.71708153072997e+05,4.99198984589735e+05
1.69450550110023e+04	+4.68699522447694e+05,4.99019266164533e+05
1.70470734146830e+04	+4.65711197875023e+05,4.98822840575103e+05
1.71490918183637e+04	+4.62743136472677e+05,4.98609995175007e+05
1.72511102220445e+04	+4.59795297512277e+05,4.98380961773968e+05
1.73531286257252e+04	+4.56867625135115e+05,4.98136125363334e+05
1.74551470294059e+04	+4.53960059567227e+05,4.97875864689558e+05
1.75571654330867e+04	+4.51072557057602e+05,4.97600348136903e+05
1.76591838367674e+04	+4.48205041580366e+05,4.97310047569841e+05
1.77612022404481e+04	+4.45357454662188e+05,4.97005224684233e+05
1.78632206441289e+04	+4.42529734833023e+05,4.96686137746079e+05
1.79652390478096e+04	+4.39721801294152e+05,4.96353190662046e+05
1.80672574514904e+04	+4.36933581704587e+05,4.96006681393043e+05
1.81692758551711e+04	+4.34165007640034e+05,4.95646854359005e+05
1.82712942588518e+04	+4.31416015463868e+05,4.95273902153514e+05
1.83733126625326e+04	+4.28686500174604e+05,4.94888305136625e+05
1.84753310662133e+04	+4.25976408633937e+05,4.94490150555860e+05
1.85773494698940e+04	+4.23285636162267e+05,4.94079859384761e+05
1.86793678735748e+04	+4.20614104992274e+05,4.93657655400755e+05
1.87813862772555e+04	+4.17961728742299e+05,4.93223806303284e+05
1.88834046809363e+04	+4.15328418811635e+05,4.92778575414623e+05
1.89854230846170e+04	+4.12714076651670e+05,4.92322267978401e+05
1.90874414882977e+04	+4.10118643635496e+05,4.91854954420956e+05
1.91894598919785e+04	+4.07541968118169e+05,4.91377207145026e+05
1.92914782956592e+04	+4.04984014439168e+05,4.90888952320573e+05
1.93934966993399e+04	+4.02444652287034e+05,4.90390614866024e+05
1.94955151030207e+04	+3.99923802349271e+05,4.89882343228877e+05
1.95975335067014e+04	+3.97421347791192e+05,4.89364461248307e+05
1.96995519103821e+04	+3.94937179078508e+05,4.88837242399046e+05
1.98015703140629e+04	+3.92471242470669e+05,4.88300693523051e+05
1.99035887177436e+04	+3.90023398805597e+05,4.87755213374949e+05
2.00056071214244e+04	+3.87593554477203e+05,4.87200976993592e+05
2.01076255251051e+04	+3.85181616045362e+05,4.86638157041205e+05
2.02096439287858e+04	+3.82787438985952e+05,4.86067135306299e+05
2.03116623324666e+04	+3.80410989079014e+05,4.85487822895351e+05
2.04136807361473e+04	+3.78052088674101e+05,4.84900719609427e+05
2.05156991398280e+04	+3.75710661858919e+05,4.84305899289274e+05
2.06177175435088e+04	+3.73386612424811e+05,4.83703518158173e+05
2.07197359471895e+04	+3.71079833164194e+05,4.83093770938846e+05
2.08217543508703e+04	+3.68790183023407e+05,4.82476970213781e+05
2.09237727545510e+04	+3.66517586082116e+05,4.81853180718207e+05
2.10257911582317e+04	+3.64261944752669e+05,4.81222547129248e+05
2.11278095619125e+04	+3.62023082493328e+05,4.80585489072071e+05
2.12298279655932e+04	+3.59800979745192e+05,4.79941865983132e+05
2.13318463692739e+04	+3.57595435213405e+05,4.79292167143050e+05
2.14338647729547e+04	+3.55406431158494e+05,4.78636250551463e+05
2.15358831766354e+04	+3.53233763502136e+05,4.77974594381455e+05
2.16379015803161e+04	+3.51077416369590e+05,4.77307055320107e+05
2.17399199839969e+04	+3.48937195667495e+05,4.76634063017092e+05
2.18419383876776e+04	+3.46813038351121e+05,4.75955623620946e+05
2.19439567913584e+04	+3.44704809293996e+05,4.75271968247956e+05
2.20459751950391e+04	+3.42612434507793e+05,4.74583138231279e+05
2.21479935987198e+04	+3.40535766258885e+05,4.73889395341497e+05
2.22500120024006e+04	+3.38474705979408e+05,4.73190849706678e+05
2.23520304060813e+04	+3.36429155723291e+05,4.72487609895163e+05
2.24540488097620e+04	+3.34398979476742e+05,4.71779890233967e+05
2.25560672134428e+04	+3.32384054172158e+05,4.71067864889045e+05
2.26580856171235e+04	+3.30384345311552e+05,4.70351456847326e+05
2.27601040208043e+04	+3.28399653823021e+05,4.69631048825640e+05
2.28621224244850e+04	+3.26429920754934e+05,4.68906630807262e+05
2.29641408281657e+04	+3.24475010388750e+05,4.68178401605343e+05
2.30661592318465e+04	+3.22534839524863e+05,4.67446418640497e+05
2.31681776355272e+04	+3.20609298648972e+05,4.66710806686804e+05
2.32701960392079e+04	+3.18698253054184e+05,4.65971755967066e+05
2.33722144428887e+04	+3.16801620180479e+05,4.65229318095043e+05
2.34742328465694e+04	+3.14919252066621e+05,4.64483710736464e+05
2.35762512502501e+04	+3.13051107149759e+05,4.63734882311954e+05
2.36782696539309e+04	+3.11196984473795e+05,4.62983176923210e+05
2.37802880576116e+04	+3.09356843515048e+05,4.62228539616833e+05
2.38823064612924e+04	+3.07530591070983e+05,4.61471047199015e+05
2.39843248649731e+04	+3.05718080381922e+05,4.60710903367153e+05
2.40863432686538e+04	+3.03919205332555e+05,4.59948211521170e+05
2.41883616723346e+04	+3.02133873975589e+05,4.59183041533779e+05
2.42903800760153e+04	+3.00362022197187e+05,4.58415399585512e+05
2.43923984796960e+04	+2.98603463395543e+05,4.57645572189788e+05
2.44944168833768e+04	+2.96858175839568e+05,4.56873468563675e+05
2.45964352870575e+04	+2.95125973063530e+05,4.56099368374871e+05
2.46984536907382e+04	+2.93406807214500e+05,4.55323240605478e+05
2.48004720944190e+04	+2.91700575819636e+05,4.54545176478741e+05
2.49024904980997e+04	+2.90007148754636e+05,4.53765325017291e+05
2.50045089017805e+04	+2.88326424638969e+05,4.52983772581129e+05
2.51065273054612e+04	+2.86658330096653e+05,4.52200544677463e+05
2.52085457091419e+04	+2.85002736853330e+05,4.51415783906664e+05
2.53105641128227e+04	+2.83359572694472e+05,4.50629513221837e+05
2.54125825165034e+04	+2.81728752697343e+05,4.49841784723687e+05
2.55146009201841e+04	+2.80110121773587e+05,4.49052792348464e+05
2.56166193238649e+04	+2.78503595637643e+05,4.48262583267555e+05
2.57186377275456e+04	+2.76909104671456e+05,4.47471175742792e+05
2.58206561312264e+04	+2.75326523906082e+05,4.46678700114539e+05
2.59226745349071e+04	+2.73755798899594e+05,4.45885144582779e+05
2.60246929385878e+04	+2.72196791637359e+05,4.45090663738208e+05
2.61267113422686e+04	+2.70649420911500e+05,4.44295298821734e+05
2.62287297459493e+04	+2.69113577980209e+05,4.43499144757936e+05
2.63307481496300e+04	+2.67589225203600e+05,4.42702159485094e+05
2.64327665533108e+04	+2.66076198642459e+05,4.41904543516874e+05
2.65347849569915e+04	+2.64574390975263e+05,4.41106385626624e+05
2.66368033606722e+04	+2.63083823596416e+05,4.40307535732162e+05
2.67388217643530e+04	+2.61604305532503e+05,4.39508240559659e+05
2.68408401680337e+04	+2.60135774299693e+05,4.38708506739921e+05
2.69428585717145e+04	+2.58678139408561e+05,4.37908392536368e+05
2.70448769753952e+04	+2.57231311351337e+05,4.37107955156681e+05
2.71468953790759e+04	+2.55795215099674e+05,4.36307225011299e+05
2.72489137827567e+04	+2.54369748155318e+05,4.35506282599882e+05
2.73509321864374e+04	+2.52954765516967e+05,4.34705281214184e+05
2.74529505901181e+04	+2.51550308409059e+05,4.33904047901738e+05
2.75549689937989e+04	+2.50156190329947e+05,4.33102808766781e+05
2.76569873974796e+04	+2.48772325550281e+05,4.32301612882509e+05
2.77590058011604e+04	+2.47398699930298e+05,4.31500386822212e+05
2.78610242048411e+04	+2.46035171876023e+05,4.30699276406564e+05
2.79630426085218e+04	+2.44681671622044e+05,4.29898304034859e+05
2.80650610122026e+04	+2.43338115545121e+05,4.29097515353375e+05
2.81670794158833e+04	+2.42004435409168e+05,4.28296931753829e+05
2.82690978195640e+04	+2.40680477883661e+05,4.27496714351621e+05
2.83711162232448e+04	+2.39366289435109e+05,4.26696694997182e+05
2.84731346269255e+04	+2.38061675399856e+05,4.25897102327780e+05
2.85751530306062e+04	+2.36766626725138e+05,4.25097861429713e+05
2.86771714342870e+04	+2.35481035198423e+05,4.24299058546850e+05
2.87791898379677e+04	+2.34204793608811e+05,4.23500777863248e+05
2.88812082416485e+04	+2.32937866164899e+05,4.22702989414026e+05
2.89832266453292e+04	+2.31680174872961e+05,4.21905730809322e+05
2.90852450490099e+04	+2.30431600377534e+05,4.21109105228997e+05
2.91872634526907e+04	+2.29192094416364e+05,4.20313103421945e+05
2.92892818563714e+04	+2.27961581054270e+05,4.19517760083563e+05
2.93913002600521e+04	+2.26740041532394e+05,4.18723022884329e+05
2.94933186637329e+04	+2.25527302330633e+05,4.17929076715199e+05
2.95953370674136e+04	+2.24323317585963e+05,4.17135909913726e+05
2.96973554710944e+04	+2.23128042185634e+05,4.16343511465453e+05
2.97993738747751e+04	+2.21941374961733e+05,4.15551954434091e+05
2.99013922784558e+04	+2.20763285839426e+05,4.14761206023634e+05
3.00034106821366e+04	+2.19593647066706e+05,4.13971379148342e+05
3.01054290858173e+04	+2.18432429632073e+05,4.13182439972328e+05
3.02074474894980e+04	+2.17279563057171e+05,4.12394416891687e+05
3.03094658931788e+04	+2.16134949429845e+05,4.11607377983549e+05
3.04114842968595e+04	+2.14998533480282e+05,4.10821329320216e+05
3.05135027005402e+04	+2.13870246497144e+05,4.10036296808423e+05
3.06155211042210e+04	+2.12750020387450e+05,4.09252305735388e+05
3.07175395079017e+04	+2.11637801471442e+05,4.08469361070914e+05
3.08195579115825e+04	+2.10533481023307e+05,4.07687545705117e+05
3.09215763152632e+04	+2.09437034337081e+05,4.06906824118184e+05
3.10235947189439e+04	+2.08348395469922e+05,4.06127219494818e+05
3.11256131226247e+04	+2.07267471561503e+05,4.05348792712799e+05
3.12276315263054e+04	+2.06194211762378e+05,4.04571546054705e+05
3.13296499299861e+04	+2.05128551794499e+05,4.03795500508211e+05
3.14316683336669e+04	+2.04070414423728e+05,4.03020695369213e+05
3.15336867373476e+04	+2.03019763742719e+05,4.02247112836308e+05
3.16357051410284e+04	+2.01976523953671e+05,4.01474791531430e+05
3.17377235447091e+04	+2.00940632789819e+05,4.00703750158608e+05
