frequency impedance phase
1.00000000000000e+01	9.99999998576915e+05,-6.28318530303006e+01
1.12018403680736e+02	9.99999393458314e+05,-7.03831881435304e+02
2.14036807361472e+02	9.99998080266223e+05,-1.34483018893976e+03
3.16055211042208e+02	9.99995945320292e+05,-1.98582518117309e+03
4.18073614722945e+02	9.99993102315519e+05,-2.62681587530212e+03
5.20092018403681e+02	9.99989210213067e+05,-3.26779889915046e+03
6.22110422084417e+02	9.99984723766584e+05,-3.90877535443897e+03
7.24128825765153e+02	9.99979188269479e+05,-4.54974039243603e+03
8.26147229445889e+02	9.99973172148553e+05,-5.19069746802227e+03
9.28165633126625e+02	9.99965993362370e+05,-5.83163835038559e+03
1.03018403680736e+03	9.99958106658479e+05,-6.47256603828257e+03
1.13220244048810e+03	9.99949512067702e+05,-7.11347938833324e+03
1.23422084416883e+03	9.99939868624176e+05,-7.75437196987524e+03
1.33623924784957e+03	9.99929403720899e+05,-8.39524514508143e+03
1.43825765153031e+03	9.99918231068708e+05,-9.03609938829478e+03
1.54027605521104e+03	9.99906350711188e+05,-9.67693356097406e+03
1.64229445889178e+03	9.99893535393346e+05,-1.03177418280303e+04
1.74431286257251e+03	9.99879898837289e+05,-1.09585246669297e+04
1.84633126625325e+03	9.99865327469489e+05,-1.15992778535235e+04
1.94834966993399e+03	9.99850162283612e+05,-1.22400077379585e+04
2.05036807361472e+03	9.99834062432516e+05,-1.28807048155754e+04
2.15238647729546e+03	9.99817028011986e+05,-1.35213670735253e+04
2.25440488097620e+03	9.99799286360256e+05,-1.41619989416150e+04
2.35642328465693e+03	9.99780723934459e+05,-1.48025959161079e+04
2.45844168833767e+03	9.99761454431739e+05,-1.54431599236628e+04
2.56046009201840e+03	9.99741364328218e+05,-1.60836861733733e+04
2.66247849569914e+03	9.99720340131175e+05,-1.67241692855542e+04
2.76449689937988e+03	9.99698381965691e+05,-1.73646072476713e+04
2.86651530306061e+03	9.99675830691258e+05,-1.80050103287212e+04
2.96853370674135e+03	9.99652345667634e+05,-1.86453651087327e+04
3.07055211042209e+03	9.99628040594900e+05,-1.92856739494262e+04
3.17257051410282e+03	9.99602915592113e+05,-1.99259352935601e+04
3.27458891778356e+03	9.99576743698147e+05,-2.05661382115806e+04
3.37660732146430e+03	9.99550206295987e+05,-2.12063091784992e+04
3.47862572514503e+03	9.99522508738451e+05,-2.18464136003062e+04
3.58064412882577e+03	9.99494332332420e+05,-2.24864792714003e+04
3.68266253250650e+03	9.99464882598292e+05,-2.31264691312952e+04
3.78468093618724e+03	9.99434840766705e+05,-2.37664122590404e+04
3.88669933986798e+03	9.99404093439622e+05,-2.44063024259347e+04
3.98871774354871e+03	9.99372300318132e+05,-2.50461214192939e+04
4.09073614722945e+03	9.99339802009445e+05,-2.56858842997222e+04
4.19275455091019e+03	9.99306485190031e+05,-2.63255839476230e+04
4.29477295459092e+03	9.99272463461718e+05,-2.69652249374540e+04
4.39679135827166e+03	9.99237396676594e+05,-2.76047873096225e+04
4.49880976195239e+03	9.99201625323398e+05,-2.82442878688687e+04
4.60082816563313e+03	9.99165149540755e+05,-2.88837254962896e+04
4.70284656931387e+03	9.99127402524216e+05,-2.95230655041774e+04
4.80486497299460e+03	9.99089404999556e+05,-3.01623662806464e+04
4.90688337667534e+03	9.99050476779539e+05,-3.08015864425450e+04
5.00890178035607e+03	9.99010391397244e+05,-3.14407096851815e+04
5.11092018403681e+03	9.98969715848755e+05,-3.20797696106646e+04
5.21293858771755e+03	9.98928450252627e+05,-3.27187654961747e+04
5.31495699139828e+03	9.98886028190882e+05,-3.33576587588431e+04
5.41697539507902e+03	9.98842903170625e+05,-3.39964774372100e+04
5.51899379875975e+03	9.98798848804601e+05,-3.46352046718250e+04
5.62101220244049e+03	9.98754205141740e+05,-3.52738624911251e+04
5.72303060612122e+03	9.98708745816128e+05,-3.59124338921013e+04
5.82504900980196e+03	9.98662244589256e+05,-3.65509007082585e+04
5.92706741348270e+03	9.98615154643255e+05,-3.71892943030187e+04
6.02908581716343e+03	9.98566796922776e+05,-3.78275624320413e+04
6.13110422084417e+03	9.98518190497041e+05,-3.84657804362797e+04
6.23312262452490e+03	9.98468543202189e+05,-3.91038867477217e+04
6.33514102820564e+03	9.98418081677949e+05,-3.97418970009879e+04
6.43715943188638e+03	9.98366806171965e+05,-4.03798096403302e+04
6.53917783556711e+03	9.98314716935268e+05,-4.10176231177016e+04
6.64119623924785e+03	9.98261814223963e+05,-4.16553358720554e+04
6.74321464292858e+03	9.98207985222316e+05,-4.22929367372006e+04
6.84523304660932e+03	9.98153569420079e+05,-4.29304529923722e+04
6.94725145029006e+03	9.98098227858964e+05,-4.35678542473197e+04
7.04926985397079e+03	9.98041960864417e+05,-4.42051385465345e+04
7.15128825765153e+03	9.97984994770289e+05,-4.48423242658049e+04
7.25330666133226e+03	9.97927216819222e+05,-4.54793999411815e+04
7.35532506501300e+03	9.97868740254096e+05,-4.61163745016414e+04
7.45734346869374e+03	9.97809339419185e+05,-4.67532256241313e+04
7.55936187237447e+03	9.97749127586342e+05,-4.73899620817457e+04
7.66138027605521e+03	9.97688217952010e+05,-4.80265932031915e+04
7.76339867973594e+03	9.97626272114332e+05,-4.86630847805298e+04
7.86541708341668e+03	9.97563403362346e+05,-4.92994455696808e+04
7.96743548709741e+03	9.97500176244373e+05,-4.99357302466253e+04
8.06945389077815e+03	9.97435913926963e+05,-5.05718701842317e+04
8.17147229445889e+03	9.97370955233489e+05,-5.12078977913507e+04
8.27349069813962e+03	9.97305074874367e+05,-5.18437884671522e+04
8.37550910182036e+03	9.97238273239704e+05,-5.24795402360025e+04
8.47752750550110e+03	9.97170888895632e+05,-5.31151872590120e+04
8.57954590918183e+03	9.97102471233122e+05,-5.37506801014170e+04
8.68156431286257e+03	9.97033471431359e+05,-5.43860657131603e+04
8.78358271654331e+03	9.96963439075472e+05,-5.50212935087025e+04
8.88560112022404e+03	9.96892937795304e+05,-5.56564241874072e+04
8.98761952390478e+03	9.96821179485924e+05,-5.62913681744051e+04
9.08963792758552e+03	9.96748840269326e+05,-5.69261996591103e+04
9.19165633126625e+03	9.96675807798089e+05,-5.75609049044114e+04
9.29367473494699e+03	9.96601857290667e+05,-5.81954564563648e+04
9.39569313862773e+03	9.96526989186538e+05,-5.88298523314472e+04
9.49771154230847e+03	9.96451428887197e+05,-5.94641175134955e+04
9.59972994598920e+03	9.96374951770758e+05,-6.00982237298056e+04
9.70174834966994e+03	9.96297783146940e+05,-6.07321965098460e+04
9.80376675335068e+03	9.96219810916891e+05,-6.13660208238335e+04
9.90578515703141e+03	9.96141260198839e+05,-6.19997233178200e+04
1.00078035607121e+04	9.96061681831283e+05,-6.26332465440618e+04
1.01098219643929e+04	9.95981076372731e+05,-6.32665880606137e+04
1.02118403680736e+04	9.95900005828560e+05,-6.38998179468464e+04
1.03138587717544e+04	9.95817909031805e+05,-6.45328628386425e+04
1.04158771754351e+04	9.95735123253291e+05,-6.51657646703303e+04
1.05178955791158e+04	9.95651648811764e+05,-6.57985223539156e+04
1.06199139827966e+04	9.95567149493444e+05,-6.64310896616907e+04
1.07219323864773e+04	9.95482074481942e+05,-6.70635249626970e+04
1.08239507901580e+04	9.95396087651405e+05,-6.76957816471223e+04
1.09259691938388e+04	9.95309301603199e+05,-6.83278732163199e+04
1.10279875975195e+04	9.95221604695096e+05,-6.89597825715990e+04
1.11300060012003e+04	9.95133221507441e+05,-6.95915392745195e+04
1.12320244048810e+04	9.95044040377712e+05,-7.02231263570400e+04
1.13340428085617e+04	9.94954061739168e+05,-7.08545423155706e+04
1.14360612122425e+04	9.94863509904787e+05,-7.14858180298946e+04
1.15380796159232e+04	9.94771825595358e+05,-7.21168711786256e+04
1.16400980196039e+04	9.94679457034132e+05,-7.27477649123376e+04
1.17421164232847e+04	9.94586292736350e+05,-7.33784815078837e+04
1.18441348269654e+04	9.94492221334687e+05,-7.40090027609852e+04
1.19461532306461e+04	9.94397578736807e+05,-7.46393773406183e+04
1.20481716343269e+04	9.94302141696921e+05,-7.52695706330780e+04
1.21501900380076e+04	9.94205575537079e+05,-7.58995295777019e+04
1.22522084416884e+04	9.94108439433689e+05,-7.65293379904348e+04
1.23542268453691e+04	9.94010622009859e+05,-7.71589777736063e+04
1.24562452490498e+04	9.93912012022944e+05,-7.77884302680075e+04
1.25582636527306e+04	9.93812386784018e+05,-7.84176585203014e+04
1.26602820564113e+04	9.93712081622725e+05,-7.90467138383221e+04
1.27623004600920e+04	9.93610985412033e+05,-7.96755771186383e+04
1.28643188637728e+04	9.93508987156189e+05,-8.03042287526542e+04
1.29663372674535e+04	9.93406421795733e+05,-8.09327216819092e+04
1.30683556711343e+04	9.93303066787637e+05,-8.15610184540345e+04
1.31703740748150e+04	9.93198699886915e+05,-8.21890804027065e+04
1.32723924784957e+04	9.93093767169332e+05,-8.28169800691908e+04
1.33744108821765e+04	9.92987935009026e+05,-8.34446602980767e+04
1.34764292858572e+04	9.92881204031147e+05,-8.40721191572506e+04
1.35784476895379e+04	9.92773908547696e+05,-8.46994121967756e+04
1.36804660932187e+04	9.92665826479499e+05,-8.53265001722337e+04
1.37824844968994e+04	9.92556736018999e+05,-8.59533428606775e+04
1.38845029005801e+04	9.92446971286957e+05,-8.65799965590296e+04
1.39865213042609e+04	9.92336310523657e+05,-8.72064208952626e+04
1.40885397079416e+04	9.92225087523427e+05,-8.78326734229820e+04
1.41905581116224e+04	9.92112969558424e+05,-8.84586936792195e+04
1.42925765153031e+04	9.91999957296668e+05,-8.90844797068259e+04
1.43945949189838e+04	9.91886273251181e+05,-8.97100701779727e+04
1.44966133226646e+04	9.91771806957911e+05,-9.03354436826123e+04
1.45986317263453e+04	9.91656669834456e+05,-9.09606192223288e+04
1.47006501300260e+04	9.91540529861410e+05,-9.15855338302028e+04
1.48026685337068e+04	9.91423720157606e+05,-9.22102476385548e+04
1.49046869373875e+04	9.91306241176252e+05,-9.28347595599559e+04
1.50067053410683e+04	9.91187761268125e+05,-9.34590053601871e+04
1.51087237447490e+04	9.91068613205477e+05,-9.40830464358876e+04
1.52107421484297e+04	9.90948576223612e+05,-9.47068389722477e+04
1.53127605521105e+04	9.90827872152122e+05,-9.53304241894734e+04
1.54147789557912e+04	9.90706390924149e+05,-9.59537793795788e+04
1.55167973594719e+04	9.90584133114262e+05,-9.65769031453549e+04
1.56188157631527e+04	9.90461209775919e+05,-9.71998158733662e+04
1.57208341668334e+04	9.90337400535211e+05,-9.78224725547930e+04
1.58228525705141e+04	9.90212816488778e+05,-9.84448934693264e+04
1.59248709741949e+04	9.90087458230412e+05,-9.90670772001734e+04
1.60268893778756e+04	9.89961326357318e+05,-9.96890223324004e+04
1.61289077815564e+04	9.89834641964935e+05,-1.00310772564910e+05
1.62309261852371e+04	9.89706744200506e+05,-1.00932191016092e+05
1.63329445889178e+04	9.89578184965857e+05,-1.01553388924150e+05
1.64349629925986e+04	9.89448964765334e+05,-1.02174365184960e+05
1.65369813962793e+04	9.89319194133367e+05,-1.02795142020658e+05
1.66389997999600e+04	9.89188433336944e+05,-1.03415625727086e+05
1.67410182036408e+04	9.89056903230353e+05,-1.04035860849184e+05
1.68430366073215e+04	9.88924494489516e+05,-1.04655822508665e+05
1.69450550110023e+04	9.88791317792199e+05,-1.05275532460671e+05
1.70470734146830e+04	9.88657593454384e+05,-1.05895036972891e+05
1.71490918183637e+04	9.88523102229659e+05,-1.06514287613304e+05
1.72511102220445e+04	9.88387625267706e+05,-1.07133234716449e+05
1.73531286257252e+04	9.88251492602826e+05,-1.07751948781483e+05
1.74551470294059e+04	9.88114595092240e+05,-1.08370404413237e+05
1.75571654330867e+04	9.87977042994457e+05,-1.08988624749497e+05
1.76591838367674e+04	9.87838617682291e+05,-1.09606559548897e+05
1.77612022404481e+04	9.87699319971129e+05,-1.10224206930237e+05
1.78632206441289e+04	9.87559369591034e+05,-1.10841615006916e+05
1.79652390478096e+04	9.87418657655107e+05,-1.11458757676041e+05
1.80672574514904e+04	9.87277184828343e+05,-1.12075633562340e+05
1.81692758551711e+04	9.87134842436121e+05,-1.12692216025707e+05
1.82712942588518e+04	9.86992068458042e+05,-1.13308604964024e+05
1.83733126625326e+04	9.86848316939281e+05,-1.13924672378811e+05
1.84753310662133e+04	9.86703698036038e+05,-1.14540441806518e+05
1.85773494698940e+04	9.86558430875291e+05,-1.15155963089175e+05
1.86793678735748e+04	9.86412406894788e+05,-1.15771209328017e+05
1.87813862772555e+04	9.86265517743257e+05,-1.16386153036209e+05
1.88834046809363e+04	9.86118091248207e+05,-1.17000871154489e+05
1.89854230846170e+04	9.85969692037215e+05,-1.17615257593666e+05
1.90874414882977e+04	9.85820756666916e+05,-1.18229416308055e+05
1.91894598919785e+04	9.85671067880754e+05,-1.18843293331966e+05
1.92914782956592e+04	9.85520517576308e+05,-1.19456860587235e+05
1.93934966993399e+04	9.85368997879564e+05,-1.20070089371717e+05
1.94955151030207e+04	9.85217161944353e+05,-1.20683139867749e+05
1.95975335067014e+04	9.85064140770337e+05,-1.21295794803314e+05
1.96995519103821e+04	9.84910587219189e+05,-1.21908215137635e+05
1.98015703140629e+04	9.84756501702876e+05,-1.22520400329604e+05
1.99035887177436e+04	9.84601342216134e+05,-1.23132211903309e+05
2.00056071214244e+04	9.84445652116350e+05,-1.23743785902878e+05
2.01076255251051e+04	9.84288889924253e+05,-1.24354982531246e+05
2.02096439287858e+04	9.84131598487752e+05,-1.24965939149796e+05
2.03116623324666e+04	9.83973778237698e+05,-1.25576655185201e+05
2.04136807361473e+04	9.83814888460085e+05,-1.26186988981626e+05
2.05156991398280e+04	9.83655471257139e+05,-1.26797079758246e+05
2.06177175435088e+04	9.83495094579002e+05,-1.27406813009070e+05
2.07197359471895e+04	9.83334191748659e+05,-1.28016301155432e+05
2.08217543508703e+04	9.83172439168997e+05,-1.28625457369575e+05
2.09237727545510e+04	9.83009837759734e+05,-1.29234279930584e+05
2.10257911582317e+04	9.82846604251900e+05,-1.29842825153560e+05
2.11278095619125e+04	9.82682631390482e+05,-1.30451062989135e+05
2.12298279655932e+04	9.82517812162968e+05,-1.31058962786797e+05
2.13318463692739e+04	9.82352578452889e+05,-1.31666640500252e+05
2.14338647729547e+04	9.82186284428346e+05,-1.32273918778299e+05
2.15358831766354e+04	9.82019469518156e+05,-1.32880943432450e+05
2.16379015803161e+04	9.81851596307321e+05,-1.33487564931842e+05
2.17399199839969e+04	9.81683203640157e+05,-1.34093930530132e+05
2.18419383876776e+04	9.81514077068177e+05,-1.34699979502772e+05
2.19439567913584e+04	9.81344324783143e+05,-1.35305740738212e+05
2.20459751950391e+04	9.81173732691148e+05,-1.35911152762727e+05
2.21479935987198e+04	9.81002301786341e+05,-1.36516213784288e+05
2.22500120024006e+04	9.80830247480222e+05,-1.37120983357727e+05
2.23520304060813e+04	9.80657463226555e+05,-1.37725429869362e+05
2.24540488097620e+04	9.80484056953429e+05,-1.38329582841337e+05
2.25560672134428e+04	9.80309708122777e+05,-1.38933348443628e+05
2.26580856171235e+04	9.80134845889609e+05,-1.39536849029796e+05
2.27601040208043e+04	9.79959149887809e+05,-1.40139990413625e+05
2.28621224244850e+04	9.79782621115134e+05,-1.40742770902200e+05
2.29641408281657e+04	9.79605687838010e+05,-1.41345314867463e+05
2.30661592318465e+04	9.79427603026331e+05,-1.41947400755451e+05
2.31681776355272e+04	9.79249115126984e+05,-1.42549248059641e+05
2.32701960392079e+04	9.79069797864198e+05,-1.43150729115398e+05
2.33722144428887e+04	9.78889758834353e+05,-1.43751874266161e+05
2.34742328465694e+04	9.78708998854360e+05,-1.44352682298803e+05
2.35762512502501e+04	9.78527625219885e+05,-1.44953184227481e+05
2.36782696539309e+04	9.78345319395781e+05,-1.45553281935628e+05
2.37802880576116e+04	9.78162401620170e+05,-1.46153070944314e+05
2.38823064612924e+04	9.77978872539385e+05,-1.46752550432611e+05
2.39843248649731e+04	9.77794307922960e+05,-1.47351588463723e+05
2.40863432686538e+04	9.77609452304749e+05,-1.47950412904880e+05
2.41883616723346e+04	9.77423669224200e+05,-1.48548825819925e+05
2.42903800760153e+04	9.77237065922361e+05,-1.49146858421834e+05
2.43923984796960e+04	9.77049855385088e+05,-1.49744575674313e+05
2.44944168833768e+04	9.76861932386420e+05,-1.50341943272756e+05
2.45964352870575e+04	9.76673403652790e+05,-1.50938993473693e+05
2.46984536907382e+04	9.76484058262051e+05,-1.51535658182849e+05
2.48004720944190e+04	9.76293791566149e+05,-1.52131901942707e+05
2.49024904980997e+04	9.76103133122182e+05,-1.52727892330330e+05
2.50045089017805e+04	9.75911766427380e+05,-1.53323527184339e+05
2.51065273054612e+04	9.75719586843422e+05,-1.53918771056249e+05
2.52085457091419e+04	9.75526700891721e+05,-1.54513656699214e+05
2.53105641128227e+04	9.75333004050944e+05,-1.55108148471911e+05
2.54125825165034e+04	9.75138708094997e+05,-1.55702313829325e+05
2.55146009201841e+04	9.74943708435754e+05,-1.56296117286354e+05
2.56166193238649e+04	9.74747900744526e+05,-1.56889522861386e+05
2.57186377275456e+04	9.74551601581232e+05,-1.57482633636836e+05
2.58206561312264e+04	9.74354496149681e+05,-1.58075344195707e+05
2.59226745349071e+04	9.74156690601904e+05,-1.58667688005337e+05
2.60246929385878e+04	9.73958290807081e+05,-1.59259699109630e+05
2.61267113422686e+04	9.73758982765717e+05,-1.59851270583934e+05
2.62287297459493e+04	9.73559082270533e+05,-1.60442507014477e+05
2.63307481496300e+04	9.73358485271422e+05,-1.61033371942087e+05
2.64327665533108e+04	9.73157192680083e+05,-1.61623864178803e+05
2.65347849569915e+04	9.72955310022521e+05,-1.62214018476218e+05
2.66368033606722e+04	9.72752524371641e+05,-1.62803725867085e+05
2.67388217643530e+04	9.72549150508402e+05,-1.63393092905540e+05
2.68408401680337e+04	9.72345084707835e+05,-1.63982082580030e+05
2.69428585717145e+04	9.72140327920925e+05,-1.64570693639967e+05
2.70448769753952e+04	9.71934881065907e+05,-1.65158924939609e+05
2.71468953790759e+04	9.71728849280852e+05,-1.65746811982421e+05
2.72489137827567e+04	9.71521816713904e+05,-1.66334206844068e+05
2.73509321864374e+04	9.71314513472991e+05,-1.66921365522031e+05
2.74529505901181e+04	9.71106315598091e+05,-1.67508066245833e+05
2.75549689937989e+04	9.70897328383225e+05,-1.68094344261850e+05
2.76569873974796e+04	9.70687656843411e+05,-1.68680235331861e+05
2.77590058011604e+04	9.70477509564873e+05,-1.69265812980220e+05
2.78610242048411e+04	9.70266575848904e+05,-1.69850964345319e+05
2.79630426085218e+04	9.70054960493230e+05,-1.70435725611917e+05
2.80650610122026e+04	9.69842768103626e+05,-1.71020133223285e+05
2.81670794158833e+04	9.69629688800815e+05,-1.71604072926400e+05
2.82690978195640e+04	9.69416034347510e+05,-1.72187656773060e+05
2.83711162232448e+04	9.69201805492980e+05,-1.72770883989834e+05
2.84731346269255e+04	9.68986693031270e+05,-1.73353639148561e+05
2.85751530306062e+04	9.68771111332568e+05,-1.73936073781370e+05
2.86771714342870e+04	9.68554648247841e+05,-1.74518033597411e+05
2.87791898379677e+04	9.68337614481142e+05,-1.75099632515121e+05
2.88812082416485e+04	9.68119907764583e+05,-1.75680831050932e+05
2.89832266453292e+04	9.67901529033644e+05,-1.76261628188595e+05
2.90852450490099e+04	9.67682376399595e+05,-1.76841983803770e+05
2.91872634526907e+04	9.67462759556190e+05,-1.77422013489647e+05
2.92892818563714e+04	9.67242268000028e+05,-1.78001560312093e+05
2.93913002600521e+04	9.67021211195173e+05,-1.78580740276538e+05
2.94933186637329e+04	9.66799692524215e+05,-1.79159592019645e+05
2.95953370674136e+04	9.66577199850388e+05,-1.79737917591542e+05
2.96973554710944e+04	9.66354042213285e+05,-1.80315833717996e+05
2.97993738747751e+04	9.66130425387554e+05,-1.80893418805834e+05
2.99013922784558e+04	9.65905940666291e+05,-1.81470512975955e+05
3.00034106821366e+04	9.65681202934602e+05,-1.82047354394477e+05
3.01054290858173e+04	9.65455394967538e+05,-1.82623622493744e+05
3.02074474894980e+04	9.65229029092778e+05,-1.83199515993381e+05
3.03094658931788e+04	9.65002004092535e+05,-1.83774993767816e+05
3.04114842968595e+04	9.64774219026764e+05,-1.84350014276871e+05
3.05135027005402e+04	9.64545980767263e+05,-1.84924697767555e+05
3.06155211042210e+04	9.64316882642642e+05,-1.85498881203325e+05
3.07175395079017e+04	9.64087231286408e+05,-1.86072685236179e+05
3.08195579115825e+04	9.63857027508218e+05,-1.86646109101198e+05
3.09215763152632e+04	9.63626068935070e+05,-1.87219070044558e+05
3.10235947189439e+04	9.63394356829823e+05,-1.87791566612060e+05
3.11256131226247e+04	9.63162095261266e+05,-1.88363680004782e+05
3.12276315263054e+04	9.62929082353906e+05,-1.88935326685568e+05
3.13296499299861e+04	9.62695623159320e+05,-1.89506629804293e+05
3.14316683336669e+04	9.62461414666396e+05,-1.90077464142220e+05
3.15336867373476e+04	9.62226660367374e+05,-1.90647911783823e+05
3.16357051410284e+04	9.61991158990498e+05,-1.91217888308486e+05
3.17377235447091e+04	9.61754911766503e+05,-1.91787392410728e+05
